ticker,ATR US Equity
field,DAY_TO_DAY_TOT_RETURN_GROSS_DVDS
date,
2000-01-03,-5.4726
2000-01-04,1.0526
2000-01-05,6.25
2000-01-06,2.2059
2000-01-07,0.0
2000-01-10,-2.1583
2000-01-11,0.4902
2000-01-12,0.7317
2000-01-13,2.9055999999999997
2000-01-14,0.7059
2000-01-18,-1.4019
2000-01-19,0.237
2000-01-20,-1.8913
2000-01-21,-1.6867
2000-01-24,-2.9412000000000003
2000-01-25,-7.0707
2000-01-26,-1.087
2000-01-27,0.5495
2000-01-28,-2.1858
2000-01-31,-1.6760000000000002
2000-02-01,11.931799999999999
2000-02-02,-2.7919
2000-02-03,-1.8277
2000-02-04,-1.5957
2000-02-07,-2.7568
2000-02-08,1.9499
2000-02-09,4.918
2000-02-10,-3.125
2000-02-11,-4.3011
2000-02-14,5.618
2000-02-15,-1.8617
2000-02-16,-0.813
2000-02-17,1.0929
2000-02-18,1.8919000000000001
2000-02-22,3.4483
2000-02-23,-1.5385
2000-02-24,-4.6875
2000-02-25,1.9125999999999999
2000-02-28,2.9491
2000-02-29,-0.2604
2000-03-01,1.3054999999999999
2000-03-02,2.5773
2000-03-03,-0.2513
2000-03-06,-4.0302
2000-03-07,-6.8241
2000-03-08,1.4085
2000-03-09,1.6667
2000-03-10,-1.0929
2000-03-13,1.3812
2000-03-14,-2.7248
2000-03-15,1.4006
2000-03-16,2.7624
2000-03-17,5.914
2000-03-20,-1.5228000000000002
2000-03-21,4.8969000000000005
2000-03-22,-2.9484
2000-03-23,7.0886
2000-03-24,-2.8369
2000-03-27,-1.9465
2000-03-28,0.7444
2000-03-29,-0.9852
2000-03-30,3.4826
2000-03-31,2.6442
2000-04-03,-2.8103
2000-04-04,-3.6145
2000-04-05,-0.75
2000-04-06,4.534
2000-04-07,-1.6867
2000-04-10,1.4706000000000001
2000-04-11,1.4493
2000-04-12,-2.8571
2000-04-13,-2.2059
2000-04-14,-3.0075
2000-04-17,2.0672
2000-04-18,-0.2532
2000-04-19,-2.5381
2000-04-20,7.8125
2000-04-24,0.4831
2000-04-25,9.1346
2000-04-26,-4.4053
2000-04-27,0.0
2000-04-28,5.0691
2000-05-01,-1.5789
2000-05-02,-2.4554
2000-05-03,-1.6018
2000-05-04,0.9302
2000-05-05,0.4608
2000-05-08,-4.5872
2000-05-09,1.6827
2000-05-10,-1.4184
2000-05-11,4.3165
2000-05-12,0.4598
2000-05-15,0.2288
2000-05-16,0.2283
2000-05-17,-0.4556
2000-05-18,0.0
2000-05-19,0.4577
2000-05-22,-1.3667
2000-05-23,-2.0785
2000-05-24,2.3585
2000-05-25,0.2304
2000-05-26,-1.1494
2000-05-30,2.093
2000-05-31,-3.1891
2000-06-01,3.2941
2000-06-02,0.2278
2000-06-05,-0.2273
2000-06-06,-1.5945
2000-06-07,0.2315
2000-06-08,0.2309
2000-06-09,0.4608
2000-06-12,0.4587
2000-06-13,1.5981999999999998
2000-06-14,-2.2472
2000-06-15,-0.2299
2000-06-16,3.9171
2000-06-19,2.6608
2000-06-20,-3.0238
2000-06-21,0.8909
2000-06-22,-0.883
2000-06-23,0.2227
2000-06-26,1.3333
2000-06-27,-1.3158
2000-06-28,3.1111
2000-06-29,-1.5086
2000-06-30,-5.4705
2000-07-03,5.0926
2000-07-05,1.7621
2000-07-06,0.0
2000-07-07,0.0
2000-07-10,-1.0823
2000-07-11,3.0635
2000-07-12,1.6985000000000001
2000-07-13,0.0
2000-07-14,-4.3841
2000-07-17,1.0917
2000-07-18,-0.8639
2000-07-19,0.0
2000-07-20,-2.3965
2000-07-21,-13.1696
2000-07-24,2.8278
2000-07-25,0.0
2000-07-26,-0.5
2000-07-27,-1.005
2000-07-28,-1.066
2000-07-31,2.5707
2000-08-01,-1.2530999999999999
2000-08-02,0.7614
2000-08-03,0.0
2000-08-04,0.0
2000-08-07,4.2821
2000-08-08,0.2415
2000-08-09,0.0
2000-08-10,-2.8916
2000-08-11,1.737
2000-08-14,-0.2439
2000-08-15,-3.423
2000-08-16,-0.2532
2000-08-17,0.0
2000-08-18,-1.7766
2000-08-21,-1.0336
2000-08-22,-1.0444
2000-08-23,-2.1108
2000-08-24,-2.965
2000-08-25,3.6111
2000-08-28,-0.8043
2000-08-29,1.6216
2000-08-30,-0.5319
2000-08-31,-0.2674
2000-09-01,1.0724
2000-09-05,-0.5305
2000-09-06,2.1333
2000-09-07,1.0444
2000-09-08,0.5168
2000-09-11,2.3136
2000-09-12,0.0
2000-09-13,-0.5025
2000-09-14,-1.2626
2000-09-15,0.7673
2000-09-18,-2.5381
2000-09-19,-0.2604
2000-09-20,-1.0444
2000-09-21,-1.0554
2000-09-22,-1.8667
2000-09-25,-1.087
2000-09-26,2.1978
2000-09-27,0.5376
2000-09-28,-0.2674
2000-09-29,2.681
2000-10-02,-2.0888
2000-10-03,0.0
2000-10-04,-1.3333
2000-10-05,0.0
2000-10-06,-3.5135
2000-10-09,1.4006
2000-10-10,-3.5911999999999997
2000-10-11,2.5788
2000-10-12,-0.2793
2000-10-13,4.2017
2000-10-16,-3.7634
2000-10-17,-1.9553
2000-10-18,1.1396
2000-10-19,2.2535
2000-10-20,-12.3967
2000-10-23,0.9434
2000-10-24,0.9346
2000-10-25,-0.6173
2000-10-26,0.9317
2000-10-27,0.0
2000-10-30,-0.0615
2000-10-31,2.1605
2000-11-01,-1.5106000000000002
2000-11-02,1.227
2000-11-03,1.2121
2000-11-06,1.4969999999999999
2000-11-07,2.9499
2000-11-08,3.1519
2000-11-09,-0.5556
2000-11-10,-0.5587
2000-11-13,4.7753
2000-11-14,2.9491
2000-11-15,0.0
2000-11-16,-1.8229
2000-11-17,3.9788
2000-11-20,0.0
2000-11-21,-1.2755
2000-11-22,-0.2584
2000-11-24,2.5907
2000-11-27,0.0
2000-11-28,-2.0202
2000-11-29,3.3505
2000-11-30,-0.2494
2000-12-01,0.5
2000-12-04,-0.4975
2000-12-05,2.75
2000-12-06,-0.9732
2000-12-07,-0.2457
2000-12-08,0.2463
2000-12-11,1.9656
2000-12-12,0.0
2000-12-13,1.9277
2000-12-14,2.6005000000000003
2000-12-15,-0.2304
2000-12-18,2.5404
2000-12-19,0.4505
2000-12-20,-1.3453
2000-12-21,0.9091
2000-12-22,2.2523
2000-12-26,-0.8811
2000-12-27,2.8889
2000-12-28,3.6717
2000-12-29,-2.0833
2001-01-02,-2.1277
2001-01-03,0.0
2001-01-04,-1.087
2001-01-05,-2.6374
2001-01-08,0.2257
2001-01-09,-1.3514
2001-01-10,2.7397
2001-01-11,2.6667
2001-01-12,2.1645
2001-01-16,-0.2119
2001-01-17,-0.8493
2001-01-18,-1.0707
2001-01-19,-2.3810000000000002
2001-01-22,-0.4435
2001-01-23,5.1225
2001-01-24,-0.6356
2001-01-25,-1.919
2001-01-26,-0.6522
2001-01-29,-0.2188
2001-01-30,2.5614
2001-01-31,2.3606
2001-02-01,-0.234
2001-02-02,-3.8191
2001-02-05,-1.1146
2001-02-06,4.3402
2001-02-07,-2.7054
2001-02-08,0.8342
2001-02-09,-1.758
2001-02-12,1.6842000000000001
2001-02-13,-0.4486
2001-02-14,0.5199
2001-02-15,1.0345
2001-02-16,-2.3891
2001-02-20,0.5245
2001-02-21,1.3913
2001-02-22,0.5146
2001-02-23,0.273
2001-02-26,1.7018
2001-02-27,-3.4471
2001-02-28,-0.5199
2001-03-01,0.8711
2001-03-02,0.5872
2001-03-05,2.5755
2001-03-06,0.1004
2001-03-07,1.8729
2001-03-08,-0.0657
2001-03-09,1.1827
2001-03-12,1.2338
2001-03-13,-0.898
2001-03-14,-3.5599
2001-03-15,0.4362
2001-03-16,-2.439
2001-03-19,4.5205
2001-03-20,1.5727
2001-03-21,-1.9355
2001-03-22,-4.2763
2001-03-23,1.6495
2001-03-26,-0.3043
2001-03-27,4.7813
2001-03-28,-4.3689
2001-03-29,-0.1692
2001-03-30,3.2881
2001-04-02,-2.1332
2001-04-03,-0.7713
2001-04-04,0.7097
2001-04-05,3.9596999999999998
2001-04-06,-1.388
2001-04-09,-0.0982
2001-04-10,2.8834
2001-04-11,-2.3885
2001-04-12,-0.1631
2001-04-16,0.2614
2001-04-17,2.6728
2001-04-18,1.1111
2001-04-19,0.471
2001-04-20,-0.3125
2001-04-23,-0.3448
2001-04-24,-0.9122
2001-04-25,3.1746
2001-04-26,-0.4923
2001-04-27,-1.3605
2001-04-30,-0.8464
2001-05-01,1.1716
2001-05-02,2.723
2001-05-03,0.7008
2001-05-04,0.4539
2001-05-07,-1.3554
2001-05-08,2.5954
2001-05-09,4.6131
2001-05-10,-0.4267
2001-05-11,-0.9429
2001-05-14,-0.7788
2001-05-15,1.0174
2001-05-16,4.2014
2001-05-17,1.6294
2001-05-18,-3.6685
2001-05-21,2.2567
2001-05-22,0.6069
2001-05-23,-4.0855
2001-05-24,-1.944
2001-05-25,0.3207
2001-05-29,-1.6274
2001-05-30,-1.4476
2001-05-31,-1.199
2001-06-01,0.9102
2001-06-04,2.6759
2001-06-05,3.6603
2001-06-06,-2.0056
2001-06-07,0.8936
2001-06-08,-0.4286
2001-06-11,-0.5739
2001-06-12,0.1154
2001-06-13,0.3171
2001-06-14,-2.4425
2001-06-15,0.4418
2001-06-18,2.9032
2001-06-19,-0.741
2001-06-20,3.3592
2001-06-21,-5.5556
2001-06-22,-1.7647
2001-06-25,-1.4969999999999999
2001-06-26,-0.9119
2001-06-27,-0.3988
2001-06-28,0.9855
2001-06-29,-1.0979
2001-07-02,-0.8634
2001-07-03,-0.311
2001-07-05,0.4056
2001-07-06,-2.5792
2001-07-09,-1.1164
2001-07-10,0.3226
2001-07-11,-0.3215
2001-07-12,2.7419000000000002
2001-07-13,-0.4396
2001-07-16,-0.5676
2001-07-17,2.4737999999999998
2001-07-18,0.5881
2001-07-19,2.0
2001-07-20,-0.6637
2001-07-23,0.2126
2001-07-24,-0.8788
2001-07-25,2.4763
2001-07-26,0.2983
2001-07-27,-1.2493
2001-07-30,-1.6295
2001-07-31,1.227
2001-08-01,0.4848
2001-08-02,-0.1809
2001-08-03,1.2085
2001-08-06,-1.791
2001-08-07,0.4863
2001-08-08,0.2117
2001-08-09,0.6942
2001-08-10,0.2698
2001-08-13,-0.299
2001-08-14,2.6687
2001-08-15,-0.4089
2001-08-16,1.4076
2001-08-17,1.7062
2001-08-20,-0.1137
2001-08-21,1.1671
2001-08-22,1.2662
2001-08-23,-0.0834
2001-08-24,-0.6118
2001-08-27,0.6156
2001-08-28,-0.5006
2001-08-29,3.1302
2001-08-30,-3.523
2001-08-31,0.5337
2001-09-04,-1.0617
2001-09-05,3.3324
2001-09-06,-1.4212
2001-09-07,-1.8575
2001-09-10,-1.1299
2001-09-17,-4.9429
2001-09-18,-0.0301
2001-09-19,-3.2171
2001-09-20,-4.287
2001-09-21,-2.4343
2001-09-24,4.491
2001-09-25,-0.9869
2001-09-26,0.1286
2001-09-27,0.3211
2001-09-28,1.7926
2001-10-01,0.9434
2001-10-02,1.8692
2001-10-03,0.5199
2001-10-04,-1.7341
2001-10-05,1.0836
2001-10-08,-1.1945000000000001
2001-10-09,-1.8909
2001-10-10,4.2654
2001-10-11,3.0606
2001-10-12,0.0294
2001-10-15,-0.0588
2001-10-16,-0.2941
2001-10-17,-2.5664
2001-10-18,-0.0908
2001-10-19,-12.1212
2001-10-22,3.1034
2001-10-23,0.0669
2001-10-24,0.0
2001-10-25,0.2674
2001-10-26,-0.0667
2001-10-29,0.0667
2001-10-30,-0.0668
2001-10-31,0.6016
2001-11-01,1.3289
2001-11-02,0.918
2001-11-05,0.9747
2001-11-06,2.5097
2001-11-07,-1.3497
2001-11-08,0.8909
2001-11-09,-2.3021
2001-11-12,-0.3551
2001-11-13,5.1182
2001-11-14,-0.4622
2001-11-15,0.0
2001-11-16,0.2167
2001-11-19,0.3707
2001-11-20,-0.7387
2001-11-21,0.7752
2001-11-23,1.2308
2001-11-26,-0.7599
2001-11-27,-0.5207
2001-11-28,-0.2463
2001-11-29,1.0802
2001-11-30,0.1527
2001-12-03,-0.061
2001-12-04,0.7322
2001-12-05,2.4531
2001-12-06,1.0346
2001-12-07,-0.5266
2001-12-10,-0.3824
2001-12-11,-1.24
2001-12-12,-1.2556
2001-12-13,-0.6963
2001-12-14,-0.9146
2001-12-17,2.3077
2001-12-18,1.1128
2001-12-19,-0.0297
2001-12-20,0.6546
2001-12-21,1.3893
2001-12-24,0.2041
2001-12-26,0.3782
2001-12-27,0.8696
2001-12-28,-2.5
2001-12-31,3.242
2002-01-02,-0.2284
2002-01-03,-0.2861
2002-01-04,-0.3443
2002-01-07,-0.4319
2002-01-08,1.9665
2002-01-09,-9.9546
2002-01-10,-2.8346
2002-01-11,-1.4910999999999999
2002-01-14,-1.6124
2002-01-15,0.4682
2002-01-16,0.0
2002-01-17,-0.1332
2002-01-18,-0.3
2002-01-22,0.2675
2002-01-23,0.3334
2002-01-24,0.0332
2002-01-25,1.4285999999999999
2002-01-28,-0.131
2002-01-29,0.9839
2002-01-30,3.9298
2002-01-31,0.25
2002-02-01,-0.4052
2002-02-04,-0.626
2002-02-05,0.0316
2002-02-06,0.9464
2002-02-07,0.4375
2002-02-08,3.1425
2002-02-11,-0.8748
2002-02-12,0.5173
2002-02-13,-0.0908
2002-02-14,-0.4242
2002-02-15,2.8302
2002-02-19,-0.2664
2002-02-20,-0.0297
2002-02-21,-0.564
2002-02-22,0.9851
2002-02-25,-0.3843
2002-02-26,0.0
2002-02-27,0.8902
2002-02-28,1.7647
2002-03-01,-0.0578
2002-03-04,-0.8097
2002-03-05,-0.1749
2002-03-06,0.6425
2002-03-07,0.4353
2002-03-08,-0.3756
2002-03-11,-0.8701
2002-03-12,-0.0878
2002-03-13,-0.4685
2002-03-14,0.559
2002-03-15,-0.8192
2002-03-18,-1.3274
2002-03-19,2.2422
2002-03-20,-0.9357
2002-03-21,1.4758
2002-03-22,-2.9668
2002-03-25,0.7194
2002-03-26,1.9048
2002-03-27,2.278
2002-03-28,0.0857
2002-04-01,-0.7703
2002-04-02,0.575
2002-04-03,-0.2287
2002-04-04,1.1748
2002-04-05,0.8213
2002-04-08,1.7978
2002-04-09,-0.1656
2002-04-10,2.0177
2002-04-11,0.0271
2002-04-12,1.6251
2002-04-15,-1.6524999999999999
2002-04-16,2.8455
2002-04-17,-2.0817
2002-04-18,-1.4801
2002-04-19,-2.0213
2002-04-22,-1.2824
2002-04-23,1.6944
2002-04-24,1.3885
2002-04-25,0.0822
2002-04-26,-0.4105
2002-04-29,1.5664
2002-04-30,0.6775
2002-05-01,1.6151
2002-05-02,2.5166
2002-05-03,-2.9974
2002-05-06,-1.8114
2002-05-07,2.0076
2002-05-08,-1.1968
2002-05-09,-0.5114
2002-05-10,-0.8387
2002-05-13,2.1282
2002-05-14,0.187
2002-05-15,0.6667
2002-05-16,-2.2781000000000002
2002-05-17,0.6235
2002-05-20,-1.5086
2002-05-21,-2.0514
2002-05-22,0.1117
2002-05-23,1.3947
2002-05-24,-0.6602
2002-05-28,-1.1908
2002-05-29,0.1962
2002-05-30,2.0699
2002-05-31,2.439
2002-06-03,-1.6854
2002-06-04,-0.7891
2002-06-05,-0.7131
2002-06-06,-0.5525
2002-06-07,1.9444
2002-06-10,-3.3515
2002-06-11,-1.9735
2002-06-12,-0.0863
2002-06-13,-2.3891999999999998
2002-06-14,0.059
2002-06-17,2.122
2002-06-18,-0.6349
2002-06-19,1.946
2002-06-20,-0.2849
2002-06-21,-0.5714
2002-06-24,-2.2989
2002-06-25,-3.2059
2002-06-26,-2.1574
2002-06-27,-2.4845
2002-06-28,-2.0701
2002-07-01,5.1057
2002-07-02,-2.7537000000000003
2002-07-03,-2.7362
2002-07-05,3.2058
2002-07-08,-0.8241
2002-07-09,-1.0866
2002-07-10,-2.6817
2002-07-11,-2.3904
2002-07-12,-0.1701
2002-07-15,-2.2147
2002-07-16,-2.9965
2002-07-17,0.9339
2002-07-18,-0.605
2002-07-19,-0.1074
2002-07-22,-1.4695
2002-07-23,-1.3822999999999999
2002-07-24,2.2500999999999998
2002-07-25,0.7576
2002-07-26,1.1815
2002-07-29,9.5745
2002-07-30,-2.8803
2002-07-31,-0.2999
2002-08-01,1.7045
2002-08-02,-3.3848
2002-08-05,-2.7211
2002-08-06,3.4965
2002-08-07,1.4527
2002-08-08,0.9324
2002-08-09,1.4517
2002-08-12,-0.3577
2002-08-13,-2.0888
2002-08-14,1.6667
2002-08-15,1.2459
2002-08-16,0.8744
2002-08-19,0.4815
2002-08-20,0.7987
2002-08-21,-0.0317
2002-08-22,-1.2365
2002-08-23,0.931
2002-08-26,1.3041
2002-08-27,-2.1036
2002-08-28,-0.8018
2002-08-29,2.3602
2002-08-30,1.3898
2002-09-03,-3.3022
2002-09-04,-1.2564
2002-09-05,-0.9462
2002-09-06,1.054
2002-09-09,0.3911
2002-09-10,0.6494
2002-09-11,1.4516
2002-09-12,-3.6566
2002-09-13,0.33
2002-09-16,-0.3289
2002-09-17,-1.5842
2002-09-18,-2.4816
2002-09-19,-0.2751
2002-09-20,0.6207
2002-09-23,-2.2618
2002-09-24,-3.7518000000000002
2002-09-25,-0.255
2002-09-26,-1.2053
2002-09-27,-0.2218
2002-09-30,-0.4446
2002-10-01,2.4191
2002-10-02,-2.9797000000000002
2002-10-03,-2.6966
2002-10-04,-0.3849
2002-10-07,-2.9366
2002-10-08,1.9506000000000001
2002-10-09,-1.3276
2002-10-10,2.1765
2002-10-11,1.7428
2002-10-14,-1.8272
2002-10-15,2.5204
2002-10-16,-3.7821
2002-10-17,2.8695
2002-10-18,-0.0764
2002-10-21,3.2505
2002-10-22,0.037
2002-10-23,0.3332
2002-10-24,-0.1107
2002-10-25,3.2508
2002-10-28,0.0358
2002-10-29,-1.4337
2002-10-30,1.6364
2002-10-31,-0.0716
2002-11-01,0.4296
2002-11-04,1.9607999999999999
2002-11-05,-0.9441
2002-11-06,1.9414
2002-11-07,-1.1427
2002-11-08,-1.2259
2002-11-11,0.0
2002-11-12,0.6028
2002-11-13,0.9517
2002-11-14,0.3841
2002-11-15,-0.1739
2002-11-18,0.4878
2002-11-19,-0.6241
2002-11-20,0.4885
2002-11-21,0.7639
2002-11-22,-0.2757
2002-11-25,2.9717000000000002
2002-11-26,-0.7718
2002-11-27,-0.2367
2002-11-29,1.2881
2002-12-02,4.9531
2002-12-03,-0.6059
2002-12-04,-0.4171
2002-12-05,0.1289
2002-12-06,0.3539
2002-12-09,-2.629
2002-12-10,1.1854
2002-12-11,-0.1952
2002-12-12,-1.3694
2002-12-13,0.3306
2002-12-16,3.1301
2002-12-17,1.5655000000000001
2002-12-18,-3.0827
2002-12-19,0.4544
2002-12-20,6.6236
2002-12-23,-7.3636
2002-12-24,-0.7197
2002-12-26,0.4283
2002-12-27,0.8858
2002-12-30,1.2358
2002-12-31,0.3534
2003-01-02,-0.128
2003-01-03,-0.641
2003-01-06,0.8065
2003-01-07,-1.216
2003-01-08,-1.4577
2003-01-09,-0.5588
2003-01-10,1.157
2003-01-13,1.1438
2003-01-14,-3.0372
2003-01-15,0.6331
2003-01-16,1.1589
2003-01-17,-0.982
2003-01-21,-1.4876
2003-01-22,-2.3826
2003-01-23,1.7532
2003-01-24,-1.5878
2003-01-27,-1.7851
2003-01-28,-0.6292
2003-01-29,0.0
2003-01-30,-2.216
2003-01-31,3.1655
2003-02-03,-1.5342
2003-02-04,-1.0291
2003-02-05,-0.8247
2003-02-06,1.3014999999999999
2003-02-07,-2.748
2003-02-10,-0.7339
2003-02-11,1.2569
2003-02-12,-3.2129
2003-02-13,6.9408
2003-02-14,3.5273
2003-02-18,0.8859
2003-02-19,-0.3377
2003-02-20,-0.9149
2003-02-21,2.8386
2003-02-24,-0.5986
2003-02-25,-0.7026
2003-02-26,1.9879
2003-02-27,-0.0661
2003-02-28,0.1653
2003-03-03,-1.0561
2003-03-04,-0.9006
2003-03-05,-0.4376
2003-03-06,1.5213
2003-03-07,0.999
2003-03-10,-2.6047000000000002
2003-03-11,1.3541
2003-03-12,-0.8016
2003-03-13,0.6061
2003-03-14,1.573
2003-03-17,3.6903
2003-03-18,1.6841
2003-03-19,-0.1875
2003-03-20,0.0313
2003-03-21,3.349
2003-03-24,-2.9679
2003-03-25,0.7491
2003-03-26,-0.7745
2003-03-27,0.4371
2003-03-28,0.715
2003-03-31,-0.1543
2003-04-01,-2.442
2003-04-02,3.3904
2003-04-03,-0.2145
2003-04-04,-2.1806
2003-04-07,2.0094
2003-04-08,-1.6005
2003-04-09,-0.8445
2003-04-10,-2.082
2003-04-11,-0.451
2003-04-14,1.9741
2003-04-15,1.9359
2003-04-16,-1.9925000000000002
2003-04-17,-0.5718
2003-04-21,4.6326
2003-04-22,0.5802
2003-04-23,1.7911000000000001
2003-04-24,-2.6245000000000003
2003-04-25,-0.7351
2003-04-28,2.8386
2003-04-29,1.2901
2003-04-30,2.1365
2003-05-01,-0.3486
2003-05-02,-0.4956
2003-05-05,0.4102
2003-05-06,0.9629
2003-05-07,0.7514
2003-05-08,0.0574
2003-05-09,1.2901
2003-05-12,-0.8774
2003-05-13,-0.4569
2003-05-14,0.2582
2003-05-15,0.372
2003-05-16,-0.7982
2003-05-19,-0.0862
2003-05-20,-0.8628
2003-05-21,-0.4062
2003-05-22,0.3495
2003-05-23,-0.029
2003-05-27,1.4808
2003-05-28,-0.8011
2003-05-29,0.3461
2003-05-30,0.6036
2003-06-02,2.2286
2003-06-03,-0.6428
2003-06-04,0.9845
2003-06-05,-0.2786
2003-06-06,0.0838
2003-06-09,-0.7815
2003-06-10,-0.225
2003-06-11,-0.3383
2003-06-12,2.1216
2003-06-13,-2.0776
2003-06-16,0.8487
2003-06-17,0.8415
2003-06-18,0.0
2003-06-19,-0.1391
2003-06-20,-2.2284
2003-06-23,-1.9943
2003-06-24,1.7442
2003-06-25,-0.6857
2003-06-26,0.9206
2003-06-27,0.057
2003-06-30,2.5641
2003-07-01,-1.1667
2003-07-02,2.5295
2003-07-03,-0.2193
2003-07-07,1.6484
2003-07-08,-0.1081
2003-07-09,0.9199
2003-07-10,-2.1448
2003-07-11,-0.137
2003-07-14,3.2922000000000002
2003-07-15,-1.7264
2003-07-16,0.0
2003-07-17,-0.4054
2003-07-18,-0.4071
2003-07-21,0.2452
2003-07-22,2.4463
2003-07-23,-2.0695
2003-07-24,0.9212
2003-07-25,0.1879
2003-07-28,0.0
2003-07-29,-0.0537
2003-07-30,-1.5310000000000001
2003-07-31,1.6094
2003-08-01,-0.2685
2003-08-04,-1.8304
2003-08-05,0.6307
2003-08-06,-0.9537
2003-08-07,-1.6505999999999998
2003-08-08,2.7972
2003-08-11,-0.3537
2003-08-12,-0.1365
2003-08-13,2.8165
2003-08-14,-0.5585
2003-08-15,1.6315
2003-08-18,0.9474
2003-08-19,0.5474
2003-08-20,0.0519
2003-08-21,0.1555
2003-08-22,-1.9405000000000001
2003-08-25,0.0528
2003-08-26,1.0021
2003-08-27,-1.0444
2003-08-28,2.058
2003-08-29,1.241
2003-09-02,-0.4086
2003-09-03,0.6154
2003-09-04,-0.1019
2003-09-05,-1.9643000000000002
2003-09-08,2.2639
2003-09-09,-1.8066
2003-09-10,-1.3734
2003-09-11,-0.4729
2003-09-12,2.6927
2003-09-15,0.2571
2003-09-16,-0.5641
2003-09-17,-0.7736
2003-09-18,-1.4813
2003-09-19,-0.8177
2003-09-22,-0.5319
2003-09-23,0.7754
2003-09-24,-1.9634
2003-09-25,-2.2192
2003-09-26,-1.1625
2003-09-29,4.4805
2003-09-30,-1.6618
2003-10-01,1.9351
2003-10-02,2.2727
2003-10-03,1.9607999999999999
2003-10-06,-0.8205
2003-10-07,0.8273
2003-10-08,0.2564
2003-10-09,-1.1509
2003-10-10,0.7762
2003-10-13,1.3607
2003-10-14,-0.5066
2003-10-15,0.1273
2003-10-16,-0.4322
2003-10-17,-4.7497
2003-10-20,-1.2332
2003-10-21,-0.3257
2003-10-22,-1.5523
2003-10-23,-0.332
2003-10-24,-0.0278
2003-10-27,0.0555
2003-10-28,-0.0556
2003-10-29,-0.2503
2003-10-30,-0.1673
2003-10-31,0.0
2003-11-03,-0.419
2003-11-04,0.1403
2003-11-05,3.0812
2003-11-06,0.5435
2003-11-07,-1.3514
2003-11-10,-1.2055
2003-11-11,0.3328
2003-11-12,0.8845
2003-11-13,-0.137
2003-11-14,-0.5487
2003-11-17,-0.2759
2003-11-18,-2.213
2003-11-19,-0.9901
2003-11-20,0.1143
2003-11-21,-0.0285
2003-11-24,-0.3711
2003-11-25,0.2865
2003-11-26,-0.2857
2003-11-28,0.0287
2003-12-01,1.2604
2003-12-02,1.4426999999999999
2003-12-03,2.203
2003-12-04,0.955
2003-12-05,-0.5405
2003-12-08,0.5435
2003-12-09,-1.2973
2003-12-10,-1.2596
2003-12-11,1.2202
2003-12-12,0.7945
2003-12-15,1.495
2003-12-16,-0.8838
2003-12-17,1.1889
2003-12-18,0.4806
2003-12-19,1.5945
2003-12-22,0.7063
2003-12-23,0.2597
2003-12-24,-0.6477
2003-12-26,1.0952
2003-12-29,0.9801
2003-12-30,0.3831
2003-12-31,-0.7634
2004-01-02,-1.1282
2004-01-05,2.6971
2004-01-06,0.4798
2004-01-07,-0.4021
2004-01-08,0.5551
2004-01-09,0.3764
2004-01-12,-0.5
2004-01-13,0.7538
2004-01-14,0.2494
2004-01-15,0.6965
2004-01-16,-1.9268999999999998
2004-01-20,0.8816
2004-01-21,2.2971
2004-01-22,-1.8794
2004-01-23,-0.9453
2004-01-26,0.7283
2004-01-27,0.2244
2004-01-28,0.0498
2004-01-29,-0.5221
2004-01-30,0.15
2004-02-02,0.0
2004-02-03,0.25
2004-02-04,-0.9975
2004-02-05,-0.8816
2004-02-06,1.7027
2004-02-09,0.6997
2004-02-10,1.3151
2004-02-11,1.396
2004-02-12,-0.7246
2004-02-13,-1.3869
2004-02-17,1.0609
2004-02-18,-0.7813
2004-02-19,-0.9596
2004-02-20,0.1242
2004-02-23,0.8189
2004-02-24,-1.526
2004-02-25,1.9745
2004-02-26,-0.7353
2004-02-27,-0.1235
2004-03-01,1.1867
2004-03-02,-1.5392000000000001
2004-03-03,-0.1241
2004-03-04,0.4969
2004-03-05,0.0
2004-03-08,0.3956
2004-03-09,-0.6402
2004-03-10,-2.7509
2004-03-11,-1.9878
2004-03-12,-0.156
2004-03-15,-0.9115
2004-03-16,-0.1314
2004-03-17,1.8947
2004-03-18,-0.6973
2004-03-19,-0.156
2004-03-22,-0.9638
2004-03-23,-1.1047
2004-03-24,-0.5851
2004-03-25,0.4548
2004-03-26,0.1864
2004-03-29,1.2759
2004-03-30,1.1811
2004-03-31,-0.3891
2004-04-01,1.1719
2004-04-02,0.8494
2004-04-05,1.2251
2004-04-06,-0.2521
2004-04-07,-0.6067
2004-04-08,0.2543
2004-04-12,1.725
2004-04-13,-2.3192
2004-04-14,-0.1787
2004-04-15,0.8951
2004-04-16,1.749
2004-04-19,1.3204
2004-04-20,-0.9098
2004-04-21,0.7444
2004-04-22,2.1429
2004-04-23,-0.627
2004-04-26,-0.6309
2004-04-27,-2.3199
2004-04-28,-0.6
2004-04-29,-1.7385000000000002
2004-04-30,0.7692
2004-05-03,0.0509
2004-05-04,2.2889
2004-05-05,-0.7956
2004-05-06,-0.2506
2004-05-07,-1.206
2004-05-10,-3.4079
2004-05-11,0.9215
2004-05-12,1.7219
2004-05-13,0.0769
2004-05-14,-1.4607999999999999
2004-05-17,-1.6125
2004-05-18,0.6609
2004-05-19,1.3655
2004-05-20,0.5181
2004-05-21,1.1598
2004-05-24,1.3758
2004-05-25,1.1561
2004-05-26,0.0
2004-05-27,1.4907
2004-05-28,-0.4896
2004-06-01,-0.5166
2004-06-02,0.1484
2004-06-03,-0.9383
2004-06-04,1.6451
2004-06-07,0.3678
2004-06-08,-0.0977
2004-06-09,1.6385
2004-06-10,-1.6602999999999999
2004-06-14,1.7372
2004-06-15,-1.1544
2004-06-16,2.3358
2004-06-17,0.951
2004-06-18,1.4131
2004-06-21,0.5574
2004-06-22,0.7621
2004-06-23,0.4813
2004-06-24,-0.2281
2004-06-25,-2.3548
2004-06-28,1.5219
2004-06-29,1.107
2004-06-30,-0.3422
2004-07-01,-1.8769
2004-07-02,0.5598
2004-07-06,-0.6959
2004-07-07,0.0467
2004-07-08,-2.2881
2004-07-09,0.8124
2004-07-12,0.5452
2004-07-13,0.495
2004-07-14,0.1877
2004-07-15,-1.4985
2004-07-16,0.6893
2004-07-19,2.9273
2004-07-20,2.6147
2004-07-21,-2.1904
2004-07-22,-1.1654
2004-07-23,-1.5723
2004-07-26,-1.0844
2004-07-27,1.2154
2004-07-28,-1.0125
2004-07-29,0.1665
2004-07-30,0.4749
2004-08-02,1.6072
2004-08-03,-1.3957
2004-08-04,1.8636
2004-08-05,-2.3854
2004-08-06,-2.847
2004-08-09,0.6838
2004-08-10,2.959
2004-08-11,0.2356
2004-08-12,-2.3737
2004-08-13,0.8907
2004-08-16,2.1713
2004-08-17,0.6773
2004-08-18,1.6933
2004-08-19,-1.3914
2004-08-20,2.6602
2004-08-23,-0.2704
2004-08-24,0.9941
2004-08-25,2.17
2004-08-26,-0.5912
2004-08-27,0.1322
2004-08-30,-2.3097
2004-08-31,2.3193
2004-09-01,-0.8583
2004-09-02,3.7736
2004-09-03,-1.8182
2004-09-07,2.0697
2004-09-08,-3.8634
2004-09-09,3.2194
2004-09-10,-1.6993
2004-09-13,-0.0656
2004-09-14,-0.0219
2004-09-15,-0.1533
2004-09-16,1.2503
2004-09-17,-1.3648
2004-09-20,0.0439
2004-09-21,2.1515
2004-09-22,-2.6435
2004-09-23,-1.1038000000000001
2004-09-24,0.067
2004-09-27,-1.4499
2004-09-28,-1.2223
2004-09-29,0.8478
2004-09-30,-0.0909
2004-10-01,3.7071
2004-10-04,-0.7237
2004-10-05,-0.1988
2004-10-06,2.5011
2004-10-07,-3.347
2004-10-08,0.5362
2004-10-11,0.1111
2004-10-12,0.111
2004-10-13,-0.3991
2004-10-14,-0.3785
2004-10-15,2.7933
2004-10-18,0.0
2004-10-19,-0.3913
2004-10-20,0.3055
2004-10-21,2.9591
2004-10-22,-2.7683999999999997
2004-10-25,1.6953
2004-10-26,1.5815000000000001
2004-10-27,-0.802
2004-10-28,1.5745
2004-10-29,-1.7176
2004-11-01,3.3674
2004-11-02,-3.2784
2004-11-03,4.1995000000000005
2004-11-04,2.189
2004-11-05,-0.6406
2004-11-08,-2.3171
2004-11-09,0.7219
2004-11-10,0.5529
2004-11-11,1.9144999999999999
2004-11-12,-0.0799
2004-11-15,0.44
2004-11-16,-1.0554
2004-11-17,2.0326
2004-11-18,-0.4339
2004-11-19,-1.4461
2004-11-22,0.3015
2004-11-23,1.1824
2004-11-24,1.3072
2004-11-26,-0.0782
2004-11-29,2.7392
2004-11-30,0.0762
2004-12-01,2.3787
2004-12-02,-0.9294
2004-12-03,-1.4822
2004-12-06,-1.2379
2004-12-07,-2.661
2004-12-08,1.4659
2004-12-09,0.7614
2004-12-10,0.3681
2004-12-13,2.7413
2004-12-14,0.5261
2004-12-15,0.3364
2004-12-16,-1.2668
2004-12-17,-0.9434
2004-12-20,-0.1143
2004-12-21,2.2121
2004-12-22,1.5485
2004-12-23,-1.0288
2004-12-27,-2.0976
2004-12-28,2.4839
2004-12-29,-1.2581
2004-12-30,0.1874
2004-12-31,-1.2904
2005-01-03,0.3221
2005-01-04,-3.0217
2005-01-05,-2.629
2005-01-06,1.02
2005-01-07,-2.9895
2005-01-10,1.2449
2005-01-11,-0.6853
2005-01-12,-0.4465
2005-01-13,-1.8349
2005-01-14,1.7445
2005-01-18,1.4085
2005-01-19,-2.3752
2005-01-20,0.0206
2005-01-21,0.1855
2005-01-24,-1.7078
2005-01-25,0.1047
2005-01-26,1.192
2005-01-27,-0.6613
2005-01-28,-1.0818
2005-01-31,2.2923
2005-02-01,0.3506
2005-02-02,1.1097
2005-02-03,0.5894
2005-02-04,1.3336000000000001
2005-02-07,-0.5384
2005-02-08,0.4611
2005-02-09,-1.9158
2005-02-10,0.1221
2005-02-11,0.9754
2005-02-14,-0.7849
2005-02-15,0.0406
2005-02-16,0.7299
2005-02-17,-0.6441
2005-02-18,1.094
2005-02-22,-1.8035999999999999
2005-02-23,1.4082
2005-02-24,2.1332
2005-02-25,2.2857
2005-02-28,-0.5587
2005-03-01,0.7361
2005-03-02,-0.6154
2005-03-03,1.4512
2005-03-04,0.7438
2005-03-07,-1.1927
2005-03-08,0.1341
2005-03-09,-0.3253
2005-03-10,-2.0541
2005-03-11,1.0388
2005-03-14,0.8923
2005-03-15,-1.0575
2005-03-16,-0.5052
2005-03-17,-0.2344
2005-03-18,0.1762
2005-03-21,0.1173
2005-03-22,-1.6006
2005-03-23,-1.2498
2005-03-24,0.221
2005-03-28,0.8419
2005-03-29,0.9342
2005-03-30,3.525
2005-03-31,-1.1223
2005-04-01,1.9623
2005-04-04,0.4151
2005-04-05,0.3758
2005-04-06,1.1232
2005-04-07,0.3702
2005-04-08,-2.6927
2005-04-11,-0.0948
2005-04-12,0.5122
2005-04-13,-2.8124000000000002
2005-04-14,-2.8743
2005-04-15,-2.0396
2005-04-18,2.8986
2005-04-19,-0.1389
2005-04-20,-2.7612
2005-04-21,2.0429
2005-04-22,-1.2012
2005-04-25,0.7497
2005-04-26,-3.4594
2005-04-27,1.3125
2005-04-28,-2.1658
2005-04-29,1.6867
2005-05-02,0.3525
2005-05-03,0.3099
2005-05-04,3.7075
2005-05-05,-0.6554
2005-05-06,1.9592
2005-05-09,0.6471
2005-05-10,-1.9287
2005-05-11,0.1788
2005-05-12,-1.8045
2005-05-13,-0.3837
2005-05-16,0.9528
2005-05-17,2.4497999999999998
2005-05-18,2.1952
2005-05-19,-1.5918999999999999
2005-05-20,-0.7601
2005-05-23,0.5106
2005-05-24,0.8988
2005-05-25,-2.8466
2005-05-26,1.774
2005-05-27,0.1958
2005-05-31,-2.2674
2005-06-01,0.8
2005-06-02,-0.6746
2005-06-03,-1.4183
2005-06-06,0.689
2005-06-07,-1.3282
2005-06-08,-0.9178
2005-06-09,1.0086
2005-06-10,-0.1019
2005-06-13,0.0816
2005-06-14,1.5695000000000001
2005-06-15,-0.1605
2005-06-16,1.3869
2005-06-17,-1.2688
2005-06-20,-1.4458
2005-06-21,1.2021
2005-06-22,-0.2819
2005-06-23,-1.0701
2005-06-24,1.102
2005-06-27,-0.5854
2005-06-28,1.5635
2005-06-29,1.2395
2005-06-30,0.316
2005-07-01,0.3937
2005-07-05,-0.1569
2005-07-06,-1.7478
2005-07-07,0.02
2005-07-08,2.5380000000000003
2005-07-11,1.2668
2005-07-12,-0.8276
2005-07-13,-1.1256
2005-07-14,-0.2552
2005-07-15,-1.2003
2005-07-18,-1.0556
2005-07-19,1.1473
2005-07-20,0.8557
2005-07-21,-0.9866
2005-07-22,0.3587
2005-07-25,-0.7149
2005-07-26,0.58
2005-07-27,-0.4176
2005-07-28,1.3978
2005-07-29,-1.4376
2005-08-01,0.2808
2005-08-02,0.8802
2005-08-03,0.1586
2005-08-04,-0.1188
2005-08-05,-0.892
2005-08-08,-0.08
2005-08-09,0.2802
2005-08-10,0.5988
2005-08-11,0.4563
2005-08-12,-0.9876
2005-08-15,0.379
2005-08-16,-1.9277
2005-08-17,-0.9726
2005-08-18,0.266
2005-08-19,0.2653
2005-08-22,0.0814
2005-08-23,-0.7525
2005-08-24,-0.3279
2005-08-25,0.1028
2005-08-26,-0.9653
2005-08-29,1.4102000000000001
2005-08-30,-0.2454
2005-08-31,1.9475
2005-09-01,0.1408
2005-09-02,0.0201
2005-09-06,0.7428
2005-09-07,-0.3189
2005-09-08,-0.1599
2005-09-09,-0.7008
2005-09-12,0.9679
2005-09-13,-2.0771
2005-09-14,-1.8356
2005-09-15,0.3117
2005-09-16,0.6628
2005-09-19,0.0
2005-09-20,-0.144
2005-09-21,-1.8133
2005-09-22,-0.2099
2005-09-23,1.2198
2005-09-26,5.1319
2005-09-27,-1.3636
2005-09-28,-0.4408
2005-09-29,0.1811
2005-09-30,0.0603
2005-10-03,1.3853
2005-10-04,-0.099
2005-10-05,-2.002
2005-10-06,0.4248
2005-10-07,0.5438
2005-10-10,-1.0417
2005-10-11,1.1336
2005-10-12,0.3603
2005-10-13,1.5955
2005-10-14,1.9827
2005-10-17,0.2695
2005-10-18,0.2112
2005-10-19,1.341
2005-10-20,-8.9414
2005-10-21,0.7889
2005-10-24,0.206
2005-10-25,0.9866
2005-10-26,1.608
2005-10-27,-0.1402
2005-10-28,1.8054000000000001
2005-10-31,1.2610999999999999
2005-11-01,0.2344
2005-11-02,0.4677
2005-11-03,1.7847
2005-11-04,-0.5527
2005-11-07,1.284
2005-11-08,-0.473
2005-11-09,-1.1407
2005-11-10,1.8269
2005-11-11,-0.0944
2005-11-14,0.1701
2005-11-15,-0.5095
2005-11-16,0.1897
2005-11-17,1.0223
2005-11-18,0.4873
2005-11-21,0.2611
2005-11-22,-0.651
2005-11-23,0.0187
2005-11-25,1.1232
2005-11-28,-2.3325
2005-11-29,3.4496
2005-11-30,0.4947
2005-12-01,-0.5469
2005-12-02,0.275
2005-12-05,0.5484
2005-12-06,-0.5818
2005-12-07,-0.5121
2005-12-08,-0.2757
2005-12-09,0.4424
2005-12-12,0.7341
2005-12-13,-0.9291
2005-12-14,-0.1655
2005-12-15,-1.3815
2005-12-16,-1.7557
2005-12-19,0.0
2005-12-20,0.2091
2005-12-21,-0.3035
2005-12-22,-0.2854
2005-12-23,1.2786
2005-12-27,-0.4145
2005-12-28,0.3784
2005-12-29,-0.5467
2005-12-30,-1.0614
2006-01-03,0.5747
2006-01-04,1.9428999999999998
2006-01-05,-0.0934
2006-01-06,0.2244
2006-01-09,0.7464
2006-01-10,0.7038
2006-01-11,0.1104
2006-01-12,-0.1286
2006-01-13,-0.3863
2006-01-17,-0.6279
2006-01-18,0.3903
2006-01-19,0.2592
2006-01-20,1.6617
2006-01-23,-1.8162
2006-01-24,1.3319
2006-01-25,0.4016
2006-01-26,0.6364
2006-01-27,-1.0298
2006-01-30,0.2191
2006-01-31,3.181
2006-02-01,-0.1595
2006-02-02,-0.4082
2006-02-03,-1.3542
2006-02-06,1.0658
2006-02-07,-2.5737
2006-02-08,0.7338
2006-02-09,0.2003
2006-02-10,3.526
2006-02-13,-4.4593
2006-02-14,0.8453
2006-02-15,0.0
2006-02-16,-1.148
2006-02-17,0.0369
2006-02-21,-0.5896
2006-02-22,-0.0556
2006-02-23,-0.5378
2006-02-24,0.2797
2006-02-27,-0.8739
2006-02-28,-0.4877
2006-03-01,1.4892
2006-03-02,0.13
2006-03-03,-0.9089
2006-03-06,-0.7862
2006-03-07,0.5472
2006-03-08,0.563
2006-03-09,-0.0187
2006-03-10,1.3437999999999999
2006-03-13,-0.1657
2006-03-14,0.1476
2006-03-15,0.2026
2006-03-16,0.5515
2006-03-17,0.5484
2006-03-20,0.4364
2006-03-21,-0.9413
2006-03-22,0.2193
2006-03-23,-0.2735
2006-03-24,-0.4206
2006-03-27,-0.4774
2006-03-28,-1.1255
2006-03-29,2.034
2006-03-30,0.3109
2006-03-31,0.7293
2006-04-03,-1.991
2006-04-04,1.5882
2006-04-05,-2.6177
2006-04-06,-0.0187
2006-04-07,0.0373
2006-04-10,-1.9784000000000002
2006-04-11,-0.0952
2006-04-12,0.5527
2006-04-13,-0.019
2006-04-17,0.2844
2006-04-18,0.189
2006-04-19,1.5093999999999999
2006-04-20,-0.6506
2006-04-21,-2.1515
2006-04-24,-0.9369
2006-04-25,1.2932000000000001
2006-04-26,-0.0572
2006-04-27,0.0
2006-04-28,0.3062
2006-05-01,0.248
2006-05-02,0.4568
2006-05-03,0.5116
2006-05-04,0.6975
2006-05-05,1.0296
2006-05-08,0.7226
2006-05-09,-0.3311
2006-05-10,-0.5537
2006-05-11,-1.2435
2006-05-12,-0.5638
2006-05-15,-0.3969
2006-05-16,-0.0569
2006-05-17,-0.7405
2006-05-18,-0.5356
2006-05-19,0.3846
2006-05-22,0.1724
2006-05-23,-1.3004
2006-05-24,0.1744
2006-05-25,-0.1741
2006-05-26,0.2325
2006-05-30,-0.3093
2006-05-31,1.9973
2006-06-01,-0.0951
2006-06-02,0.1522
2006-06-05,-0.038
2006-06-06,-0.3611
2006-06-07,0.3625
2006-06-08,-1.0454
2006-06-09,-0.5955
2006-06-12,-0.9469
2006-06-13,-1.5802
2006-06-14,-0.4955
2006-06-15,1.2749
2006-06-16,-0.3147
2006-06-19,-1.1444
2006-06-20,0.1397
2006-06-21,0.7774
2006-06-22,-1.068
2006-06-23,0.9796
2006-06-26,1.4453
2006-06-27,-0.9563
2006-06-28,0.6897
2006-06-29,2.5049
2006-06-30,-5.2883
2006-07-03,2.6003
2006-07-05,-0.8448
2006-07-06,0.0198
2006-07-07,-2.4366
2006-07-10,1.8477000000000001
2006-07-11,0.4984
2006-07-12,-3.2533
2006-07-13,-2.358
2006-07-14,0.294
2006-07-17,-0.9841
2006-07-18,1.0785
2006-07-19,2.9916
2006-07-20,1.0156
2006-07-21,-2.0511
2006-07-24,3.3463
2006-07-25,1.1124
2006-07-26,-0.8448
2006-07-27,-0.2378
2006-07-28,2.9593
2006-07-31,-0.2325
2006-08-01,-1.1262
2006-08-02,0.5499
2006-08-03,1.3477000000000001
2006-08-04,0.5781
2006-08-07,-1.1496
2006-08-08,-0.9692
2006-08-09,-0.7438
2006-08-10,-0.2366
2006-08-11,-0.1186
2006-08-14,-0.1385
2006-08-15,2.1403
2006-08-16,2.0567
2006-08-17,-0.8555
2006-08-18,-0.0767
2006-08-21,-1.2282
2006-08-22,0.2914
2006-08-23,-1.1817
2006-08-24,-0.5293
2006-08-25,-0.6307
2006-08-28,1.8247
2006-08-29,1.1492
2006-08-30,-0.0578
2006-08-31,-0.7707
2006-09-01,0.0194
2006-09-05,0.5824
2006-09-06,-1.9687000000000001
2006-09-07,-1.457
2006-09-08,-0.1199
2006-09-11,-0.12
2006-09-12,1.8426
2006-09-13,0.767
2006-09-14,-0.8197
2006-09-15,-1.2987
2006-09-18,0.0
2006-09-19,-0.319
2006-09-20,1.3
2006-09-21,-0.691
2006-09-22,-1.4115
2006-09-25,2.0165
2006-09-26,2.3325
2006-09-27,-0.5409
2006-09-28,0.8934
2006-09-29,-2.0597
2006-10-02,-1.2972000000000001
2006-10-03,-0.3186
2006-10-04,2.9165
2006-10-05,1.3975
2006-10-06,0.3828
2006-10-09,0.8963
2006-10-10,0.3591
2006-10-11,0.9981
2006-10-12,1.1188
2006-10-13,1.2908
2006-10-16,0.0364
2006-10-17,0.0
2006-10-18,0.1274
2006-10-19,1.9811
2006-10-20,-0.1069
2006-10-23,-0.5174
2006-10-24,-0.6636
2006-10-25,0.7583
2006-10-26,0.0
2006-10-27,-1.2184
2006-10-30,0.6167
2006-10-31,-0.6154
2006-11-01,-1.9122
2006-11-02,2.228
2006-11-03,1.3622
2006-11-06,0.9676
2006-11-07,0.5679
2006-11-08,1.0941
2006-11-09,-1.2219
2006-11-10,0.8305
2006-11-13,2.2433
2006-11-14,2.6397
2006-11-15,0.3507
2006-11-16,-0.2163
2006-11-17,0.9006
2006-11-20,0.1818
2006-11-21,-0.099
2006-11-22,-0.3138
2006-11-24,0.1491
2006-11-27,-0.7279
2006-11-28,0.5666
2006-11-29,0.8451
2006-11-30,0.6572
2006-12-01,-1.2406
2006-12-04,2.0826000000000002
2006-12-05,-0.5343
2006-12-06,-1.3837
2006-12-07,-0.3301
2006-12-08,-0.5797
2006-12-11,-0.5497
2006-12-12,-0.67
2006-12-13,0.7589
2006-12-14,0.5858
2006-12-15,-0.5491
2006-12-18,-2.0077
2006-12-19,0.3415
2006-12-20,0.7657
2006-12-21,-0.7092
2006-12-22,-0.9354
2006-12-26,1.6481
2006-12-27,2.0098
2006-12-28,-0.8775
2006-12-29,-1.3862999999999999
2007-01-03,0.7791
2007-01-04,-0.2353
2007-01-05,-1.9542000000000002
2007-01-08,0.3952
2007-01-09,0.2225
2007-01-10,0.1025
2007-01-11,2.0471
2007-01-12,0.9194
2007-01-16,1.1264
2007-01-17,-0.2621
2007-01-18,-1.2646
2007-01-19,0.9647
2007-01-22,-1.3839000000000001
2007-01-23,2.4223
2007-01-24,-0.8481
2007-01-25,0.1645
2007-01-26,0.1807
2007-01-29,0.9508
2007-01-30,-0.1793
2007-01-31,-0.3918
2007-02-01,0.8031
2007-02-02,0.1951
2007-02-05,-0.6329
2007-02-06,-0.147
2007-02-07,-0.4907
2007-02-08,0.6739
2007-02-09,7.7551
2007-02-12,-0.5909
2007-02-13,0.2591
2007-02-14,0.7905
2007-02-15,-1.8702999999999999
2007-02-16,0.3381
2007-02-20,0.8732
2007-02-21,-0.4556
2007-02-22,-0.3051
2007-02-23,2.2035
2007-02-26,0.4342
2007-02-27,-2.2063
2007-02-28,0.2896
2007-03-01,0.7752
2007-03-02,-0.7843
2007-03-05,-0.5017
2007-03-06,0.8403
2007-03-07,0.2121
2007-03-08,0.3175
2007-03-09,0.1356
2007-03-12,1.174
2007-03-13,-3.1092
2007-03-14,0.9519
2007-03-15,0.5323
2007-03-16,-0.6959
2007-03-19,0.9598
2007-03-20,0.3471
2007-03-21,2.5263
2007-03-22,-1.144
2007-03-23,1.6469
2007-03-26,-0.3941
2007-03-27,-1.1723
2007-03-28,-0.1186
2007-03-29,-0.1485
2007-03-30,-0.4906
2007-04-02,0.4482
2007-04-03,0.9966
2007-04-04,0.648
2007-04-05,0.3805
2007-04-09,-0.3644
2007-04-10,0.1463
2007-04-11,-0.8473
2007-04-12,1.7828
2007-04-13,0.3909
2007-04-16,1.3699
2007-04-17,-0.2276
2007-04-18,-1.6253
2007-04-19,8.1739
2007-04-20,0.6431
2007-04-23,-0.1464
2007-04-24,0.7199
2007-04-25,0.5956
2007-04-26,-0.2763
2007-04-27,0.0132
2007-04-30,-3.0211
2007-05-01,1.6519
2007-05-02,0.3358
2007-05-03,-0.0669
2007-05-04,0.442
2007-05-07,-0.0267
2007-05-08,0.0133
2007-05-09,0.4001
2007-05-10,-4.2774
2007-05-11,3.275
2007-05-14,-1.29
2007-05-15,-0.844
2007-05-16,0.6315
2007-05-17,0.191
2007-05-18,0.2451
2007-05-21,0.0815
2007-05-22,1.4115
2007-05-23,-0.2409
2007-05-24,-1.1001
2007-05-25,0.6511
2007-05-29,0.4852
2007-05-30,1.0193
2007-05-31,-0.2655
2007-06-01,1.3046
2007-06-04,0.0
2007-06-05,-0.4205
2007-06-06,-1.1613
2007-06-07,-1.7356
2007-06-08,0.4891
2007-06-11,-0.649
2007-06-12,-2.0686
2007-06-13,1.3341
2007-06-14,2.0296
2007-06-15,1.9355
2007-06-18,-2.1888
2007-06-19,-0.0809
2007-06-20,-2.5904
2007-06-21,0.277
2007-06-22,-1.0773
2007-06-25,-1.2566
2007-06-26,0.2828
2007-06-27,1.3536000000000001
2007-06-28,0.5008
2007-06-29,-1.5504
2007-07-02,2.9246
2007-07-03,0.5191
2007-07-05,0.3805
2007-07-06,0.4062
2007-07-09,-0.8091
2007-07-10,-1.0604
2007-07-11,1.2916
2007-07-12,2.089
2007-07-13,0.7441
2007-07-16,-0.9232
2007-07-17,1.9169
2007-07-18,2.3772
2007-07-19,-3.2917
2007-07-20,0.1319
2007-07-23,0.3162
2007-07-24,-2.5217
2007-07-25,-1.4012
2007-07-26,-1.8584
2007-07-27,-1.1139000000000001
2007-07-30,1.9503
2007-07-31,0.9149
2007-08-01,1.5934
2007-08-02,0.1622
2007-08-03,-2.3218
2007-08-06,1.1885
2007-08-07,-0.7375
2007-08-08,7.0721
2007-08-09,-2.4158
2007-08-10,2.2913
2007-08-13,-1.4676
2007-08-14,-2.5346
2007-08-15,-3.9678
2007-08-16,4.6622
2007-08-17,0.2401
2007-08-20,-2.4215
2007-08-21,-0.5999
2007-08-22,0.2743
2007-08-23,-1.3953
2007-08-24,1.5537999999999998
2007-08-27,-2.377
2007-08-28,-2.323
2007-08-29,2.3496
2007-08-30,0.9798
2007-08-31,0.7208
2007-09-04,-0.7982
2007-09-05,-1.5537999999999998
2007-09-06,-2.1984
2007-09-07,-1.4409
2007-09-10,-0.2339
2007-09-11,1.8757000000000001
2007-09-12,-1.6974
2007-09-13,-0.7609
2007-09-14,0.5898
2007-09-17,-0.9675
2007-09-18,3.3748
2007-09-19,3.0641
2007-09-20,0.0834
2007-09-21,1.6657
2007-09-24,-0.1912
2007-09-25,-0.2462
2007-09-26,2.3313
2007-09-27,0.6969
2007-09-28,0.7985
2007-10-01,1.2147000000000001
2007-10-02,2.4263
2007-10-03,-0.6113
2007-10-04,-0.0769
2007-10-05,2.4109
2007-10-08,-1.1019
2007-10-09,0.4052
2007-10-10,-2.169
2007-10-11,-0.5672
2007-10-12,2.6445
2007-10-15,-1.465
2007-10-16,0.2051
2007-10-17,0.1535
2007-10-18,6.9475999999999996
2007-10-19,-2.0779
2007-10-22,7.7073
2007-10-23,0.6341
2007-10-24,-2.8128
2007-10-25,0.7409
2007-10-26,2.0225
2007-10-29,-2.0725
2007-10-30,0.0461
2007-10-31,3.0904
2007-11-01,-4.2058
2007-11-02,0.327
2007-11-05,0.8845
2007-11-06,1.3613
2007-11-07,-4.9852
2007-11-08,1.0302
2007-11-09,-1.3042
2007-11-12,0.5046
2007-11-13,2.558
2007-11-14,-1.3519999999999999
2007-11-15,-1.8904
2007-11-16,-0.1927
2007-11-19,-1.4961
2007-11-20,0.343
2007-11-21,0.0732
2007-11-23,2.464
2007-11-26,-3.5952
2007-11-27,0.9879
2007-11-28,6.2852
2007-11-29,-2.6231
2007-11-30,-0.2599
2007-12-03,-1.8716
2007-12-04,-1.3279
2007-12-05,3.1319
2007-12-06,2.8233
2007-12-07,0.2538
2007-12-10,0.2532
2007-12-11,-2.5712
2007-12-12,1.3431
2007-12-13,-1.2555
2007-12-14,-1.766
2007-12-17,-3.1879
2007-12-18,1.0646
2007-12-19,-2.3028
2007-12-20,1.4544000000000001
2007-12-21,4.8196
2007-12-24,2.3344
2007-12-26,-0.4378
2007-12-27,-3.6797
2007-12-28,0.1682
2007-12-31,-1.871
2008-01-02,-2.3222
2008-01-03,-1.3514
2008-01-04,2.5114
2008-01-07,-1.4104999999999999
2008-01-08,-3.3384
2008-01-09,3.168
2008-01-10,-0.1007
2008-01-11,-4.258
2008-01-14,2.6842
2008-01-15,-2.9472
2008-01-16,-0.9242
2008-01-17,-3.1183
2008-01-18,-3.4112999999999998
2008-01-22,-1.0538
2008-01-23,4.6344
2008-01-24,-2.2008
2008-01-25,2.2785
2008-01-28,2.5303
2008-01-29,0.4828
2008-01-30,-3.536
2008-01-31,4.6931
2008-02-01,0.9549
2008-02-04,-4.6243
2008-02-05,-3.3333
2008-02-06,-0.5415
2008-02-07,-1.3181
2008-02-08,5.5459
2008-02-11,4.2091
2008-02-12,2.8247
2008-02-13,1.335
2008-02-14,-2.0269
2008-02-15,0.6982
2008-02-19,-1.1299
2008-02-20,0.5195
2008-02-21,-0.7235
2008-02-22,0.937
2008-02-25,1.8824
2008-02-26,-0.1012
2008-02-27,-0.1267
2008-02-28,-1.725
2008-02-29,-3.2525
2008-03-03,1.5208
2008-03-04,-3.2063
2008-03-05,0.1358
2008-03-06,-3.7419000000000002
2008-03-07,0.7887
2008-03-10,-2.2359
2008-03-11,5.06
2008-03-12,-0.7891
2008-03-13,0.0274
2008-03-14,-2.9339
2008-03-17,-0.452
2008-03-18,7.4064
2008-03-19,-2.6684
2008-03-20,2.3344
2008-03-24,2.8647
2008-03-25,1.7793
2008-03-26,-0.7854
2008-03-27,-1.379
2008-03-28,-0.1813
2008-03-31,0.9857
2008-04-01,4.4182
2008-04-02,0.0492
2008-04-03,-0.4426
2008-04-04,0.1729
2008-04-07,0.641
2008-04-08,-0.6369
2008-04-09,-1.8738000000000001
2008-04-10,2.4874
2008-04-11,-2.378
2008-04-14,-1.0296
2008-04-15,1.8777
2008-04-16,5.3549
2008-04-17,6.052
2008-04-18,-1.3152
2008-04-21,1.7845
2008-04-22,-2.1527
2008-04-23,0.9299
2008-04-24,0.5618
2008-04-25,0.4469
2008-04-28,-0.3782
2008-04-29,-1.2318
2008-04-30,0.1134
2008-05-01,0.7475
2008-05-02,-0.8768
2008-05-05,0.1588
2008-05-06,0.5208
2008-05-07,-2.4555
2008-05-08,0.5543
2008-05-09,0.4364
2008-05-12,2.3325
2008-05-13,0.0894
2008-05-14,-0.6028
2008-05-15,0.3819
2008-05-16,0.0671
2008-05-19,-1.4088
2008-05-20,0.4083
2008-05-21,-1.2650000000000001
2008-05-22,0.8465
2008-05-23,-0.2949
2008-05-27,1.5472000000000001
2008-05-28,1.0083
2008-05-29,0.976
2008-05-30,-1.7574999999999998
2008-06-02,-0.9392
2008-06-03,0.0451
2008-06-04,1.1056
2008-06-05,3.0127
2008-06-06,-3.0329
2008-06-09,-1.8319999999999999
2008-06-10,-0.091
2008-06-11,-2.8702
2008-06-12,0.9381
2008-06-13,0.5112
2008-06-16,0.208
2008-06-17,-1.0842
2008-06-18,-1.7024
2008-06-19,1.7556
2008-06-20,-1.7487
2008-06-23,0.617
2008-06-24,-2.1698
2008-06-25,2.0974
2008-06-26,-2.4085
2008-06-27,2.4920999999999998
2008-06-30,-0.9679
2008-07-01,0.4052
2008-07-02,-1.5194999999999999
2008-07-03,-0.7715
2008-07-07,-0.8503
2008-07-08,1.7888
2008-07-09,-1.1314
2008-07-10,0.9983
2008-07-11,-0.1446
2008-07-14,-0.3139
2008-07-15,-0.4602
2008-07-16,2.3601
2008-07-17,3.4704
2008-07-18,-12.5431
2008-07-21,-2.2327
2008-07-22,2.4987
2008-07-23,-0.7602
2008-07-24,-1.4527
2008-07-25,0.7505
2008-07-28,-0.7981
2008-07-29,2.6387
2008-07-30,3.6726
2008-07-31,-2.0749
2008-08-01,0.0258
2008-08-04,-1.55
2008-08-05,2.3616
2008-08-06,0.8972
2008-08-07,-0.2287
2008-08-08,1.1714
2008-08-11,1.5102
2008-08-12,-0.8678
2008-08-13,0.9505
2008-08-14,-0.1239
2008-08-15,0.4217
2008-08-18,-1.2105
2008-08-19,-1.5754000000000001
2008-08-20,0.4065
2008-08-21,-0.2277
2008-08-22,1.6992
2008-08-25,-1.6209
2008-08-26,0.1267
2008-08-27,1.0886
2008-08-28,2.4793
2008-08-29,-1.2952
2008-09-02,-0.2228
2008-09-03,0.8933
2008-09-04,-2.5332
2008-09-05,0.2776
2008-09-08,1.3588
2008-09-09,-1.4647000000000001
2008-09-10,0.7055
2008-09-11,-0.8006
2008-09-12,1.5889
2008-09-15,-2.9295
2008-09-16,3.9898
2008-09-17,-4.4024
2008-09-18,5.6599
2008-09-19,0.7792
2008-09-22,-2.4402
2008-09-23,-1.9564
2008-09-24,-0.0505
2008-09-25,1.0614
2008-09-26,-0.6002
2008-09-29,-4.5786
2008-09-30,3.111
2008-10-01,0.8949
2008-10-02,-3.2691
2008-10-03,-4.3228
2008-10-06,-2.437
2008-10-07,-2.7224
2008-10-08,-1.6444999999999999
2008-10-09,-6.1308
2008-10-10,4.7813
2008-10-13,4.2052
2008-10-14,-2.8334
2008-10-15,-6.7452
2008-10-16,5.0853
2008-10-17,-3.1259
2008-10-20,0.031
2008-10-21,-4.4045
2008-10-22,-6.6190999999999995
2008-10-23,-2.3628
2008-10-24,-3.3452
2008-10-27,-1.9146
2008-10-28,4.1525
2008-10-29,5.9079
2008-10-30,3.3196
2008-10-31,0.4306
2008-11-03,2.1768
2008-11-04,3.6151999999999997
2008-11-05,-2.3988
2008-11-06,-3.5429
2008-11-07,4.5334
2008-11-10,-1.4562
2008-11-11,-1.5098
2008-11-12,-3.5551
2008-11-13,5.9858
2008-11-14,-4.6586
2008-11-17,1.3721999999999999
2008-11-18,-0.6273
2008-11-19,-6.6777
2008-11-20,0.0
2008-11-21,4.0584
2008-11-24,2.7027
2008-11-25,3.9973
2008-11-26,4.9007
2008-11-28,2.1069
2008-12-01,-10.317
2008-12-02,3.968
2008-12-03,1.347
2008-12-04,-2.4367
2008-12-05,4.2491
2008-12-08,1.2446
2008-12-09,-4.3639
2008-12-10,3.1491
2008-12-11,-3.7695
2008-12-12,4.3703
2008-12-15,-0.7444
2008-12-16,7.5
2008-12-17,-0.3488
2008-12-18,-2.8296
2008-12-19,0.3903
2008-12-22,-1.7644
2008-12-23,0.6088
2008-12-24,-0.0303
2008-12-26,1.6343999999999999
2008-12-29,-0.3574
2008-12-30,4.0347
2008-12-31,1.2353
2009-01-02,1.6459000000000001
2009-01-05,-2.0938
2009-01-06,-3.0225
2009-01-07,-3.352
2009-01-08,2.4643
2009-01-09,-3.3848
2009-01-12,-0.4917
2009-01-13,0.0926
2009-01-14,-5.7081
2009-01-15,1.7343
2009-01-16,-2.0907
2009-01-20,-4.4021
2009-01-21,4.3643
2009-01-22,-1.2511999999999999
2009-01-23,0.0667
2009-01-26,1.1996
2009-01-27,1.7122000000000002
2009-01-28,3.7085
2009-01-29,-1.3801999999999999
2009-01-30,-1.972
2009-02-02,-2.6931000000000003
2009-02-03,0.1667
2009-02-04,-1.0652
2009-02-05,1.2113
2009-02-06,2.5930999999999997
2009-02-09,-1.8795
2009-02-10,-3.996
2009-02-11,0.8944
2009-02-12,0.9206
2009-02-13,-1.4189
2009-02-17,-4.0439
2009-02-18,-0.7143
2009-02-19,-1.223
2009-02-20,-0.5098
2009-02-23,-3.8067
2009-02-24,3.7291
2009-02-25,1.3206
2009-02-26,0.1086
2009-02-27,1.4828000000000001
2009-03-02,-5.9872
2009-03-03,-0.9856
2009-03-04,1.9142000000000001
2009-03-05,-3.0428
2009-03-06,-1.0074
2009-03-09,-0.9785
2009-03-10,3.9920999999999998
2009-03-11,-0.6461
2009-03-12,3.0604
2009-03-13,1.7816999999999998
2009-03-16,-0.1823
2009-03-17,2.1556
2009-03-18,5.6509
2009-03-19,1.7265000000000001
2009-03-20,-1.8636
2009-03-23,4.4761
2009-03-24,-1.2009
2009-03-25,1.544
2009-03-26,5.0793
2009-03-27,-1.17
2009-03-30,-3.5826000000000002
2009-03-31,0.6139
2009-04-01,-0.1606
2009-04-02,5.3715
2009-04-03,0.2747
2009-04-06,0.0
2009-04-07,-3.5008
2009-04-08,2.3975
2009-04-09,3.2039
2009-04-13,-1.9403000000000001
2009-04-14,-2.5875
2009-04-15,1.125
2009-04-16,-6.5822
2009-04-17,-1.8525
2009-04-20,-2.8311
2009-04-21,2.7055
2009-04-22,-0.743
2009-04-23,1.5992
2009-04-24,1.4066
2009-04-27,0.3303
2009-04-28,-0.7608
2009-04-29,2.6333
2009-04-30,0.7795
2009-05-01,-1.0957
2009-05-04,2.0854
2009-05-05,-0.0319
2009-05-06,0.7982
2009-05-07,-1.3620999999999999
2009-05-08,0.7065
2009-05-11,-0.861
2009-05-12,0.2252
2009-05-13,-3.1772
2009-05-14,1.823
2009-05-15,-0.2279
2009-05-18,1.1419
2009-05-19,0.8387
2009-05-20,-0.7038
2009-05-21,-0.9665
2009-05-22,-0.1952
2009-05-26,3.0965
2009-05-27,-2.9402
2009-05-28,-0.8143
2009-05-29,1.8391
2009-06-01,3.7407
2009-06-02,2.1449
2009-06-03,-0.1826
2009-06-04,0.1524
2009-06-05,-1.2481
2009-06-08,0.9556
2009-06-09,0.8244
2009-06-10,0.9388
2009-06-11,2.1002
2009-06-12,-0.0294
2009-06-15,-2.1458
2009-06-16,-0.9312
2009-06-17,0.4851
2009-06-18,-0.4526
2009-06-19,-0.2425
2009-06-22,-2.7043
2009-06-23,0.5934
2009-06-24,0.0931
2009-06-25,2.2333
2009-06-26,1.2136
2009-06-29,1.289
2009-06-30,-0.0592
2009-07-01,1.0068
2009-07-02,-1.3486
2009-07-06,-1.4859
2009-07-07,-1.7798
2009-07-08,-0.4914
2009-07-09,0.0617
2009-07-10,0.8945
2009-07-13,1.8649
2009-07-14,0.03
2009-07-15,5.0105
2009-07-16,2.1143
2009-07-17,-1.6787999999999998
2009-07-20,1.9351
2009-07-21,-0.6142
2009-07-22,0.3652
2009-07-23,1.0076
2009-07-24,-0.0831
2009-07-27,-1.8303
2009-07-28,-0.7943
2009-07-29,-1.0009
2009-07-30,1.0399
2009-07-31,-0.1715
2009-08-03,2.1764
2009-08-04,0.5886
2009-08-05,-0.9752
2009-08-06,-1.2662
2009-08-07,0.6555
2009-08-10,-0.906
2009-08-11,1.4857
2009-08-12,0.5349
2009-08-13,0.7281
2009-08-14,-1.4456
2009-08-17,-2.031
2009-08-18,0.4607
2009-08-19,0.9458
2009-08-20,0.1988
2009-08-21,0.9634
2009-08-24,-0.3649
2009-08-25,-0.0282
2009-08-26,-0.9017
2009-08-27,-0.2275
2009-08-28,-0.9119
2009-08-31,-1.1217
2009-09-01,-0.6981
2009-09-02,-0.4687
2009-09-03,0.4709
2009-09-04,0.4687
2009-09-08,1.895
2009-09-09,0.6295
2009-09-10,0.2843
2009-09-11,0.5954
2009-09-14,1.1838
2009-09-15,2.507
2009-09-16,0.8424
2009-09-17,-0.4581
2009-09-18,-0.6497
2009-09-21,0.6812
2009-09-22,0.406
2009-09-23,0.7008
2009-09-24,-1.4722
2009-09-25,-1.1682
2009-09-28,2.6663
2009-09-29,0.0803
2009-09-30,-0.0535
2009-10-01,-2.5161
2009-10-02,-0.8237
2009-10-05,1.6334
2009-10-06,0.3269
2009-10-07,0.6516
2009-10-08,0.7284
2009-10-09,1.714
2009-10-12,-0.079
2009-10-13,0.2372
2009-10-14,2.2345
2009-10-15,-3.0599
2009-10-16,-0.557
2009-10-19,0.1067
2009-10-20,-1.2257
2009-10-21,-1.2139
2009-10-22,1.5019
2009-10-23,-0.565
2009-10-26,0.2976
2009-10-27,-1.7606000000000002
2009-10-28,-2.316
2009-10-29,0.875
2009-10-30,-1.2031
2009-11-02,-1.0762
2009-11-03,0.773
2009-11-04,-0.5114
2009-11-05,1.8275000000000001
2009-11-06,-0.6169
2009-11-09,1.6648
2009-11-10,-0.222
2009-11-11,0.0278
2009-11-12,-1.0011
2009-11-13,1.1236
2009-11-16,1.9722
2009-11-17,0.5448
2009-11-18,-0.8399
2009-11-19,-0.5191
2009-11-20,-0.1923
2009-11-23,0.9356
2009-11-24,-0.4635
2009-11-25,0.8491
2009-11-27,-2.4715
2009-11-30,0.5848
2009-12-01,0.526
2009-12-02,0.4406
2009-12-03,-1.1242
2009-12-04,1.3034
2009-12-07,0.3011
2009-12-08,0.1092
2009-12-09,0.0818
2009-12-10,-1.0896
2009-12-11,0.7436
2009-12-14,-0.1093
2009-12-15,0.3284
2009-12-16,0.2455
2009-12-17,-1.4694
2009-12-18,-0.7733
2009-12-21,0.7236
2009-12-22,0.304
2009-12-23,-0.3581
2009-12-24,0.5529
2009-12-28,0.055
2009-12-29,-0.0824
2009-12-30,-0.11
2009-12-31,-1.5969
2010-01-04,1.399
2010-01-05,-0.1104
2010-01-06,1.5192999999999999
2010-01-07,0.0
2010-01-08,0.0816
2010-01-11,0.0816
2010-01-12,0.0543
2010-01-13,0.1629
2010-01-14,-0.2982
2010-01-15,-1.4682
2010-01-19,1.7936
2010-01-20,-1.2741
2010-01-21,-0.961
2010-01-22,-0.0277
2010-01-25,0.0
2010-01-26,-0.1664
2010-01-27,0.5833
2010-01-28,-0.8009
2010-01-29,-1.2248999999999999
2010-02-01,0.6483
2010-02-02,1.4623
2010-02-03,-0.2217
2010-02-04,-2.5
2010-02-05,-0.1994
2010-02-08,0.3426
2010-02-09,0.7681
2010-02-10,-0.9599
2010-02-11,8.0388
2010-02-12,0.3694
2010-02-16,-0.7098
2010-02-17,-0.8208
2010-02-18,1.1746
2010-02-19,0.5805
2010-02-22,0.2623
2010-02-23,-0.4186
2010-02-24,1.0247
2010-02-25,-0.2341
2010-02-26,0.4432
2010-03-01,1.2458
2010-03-02,0.769
2010-03-03,0.8395
2010-03-04,0.0
2010-03-05,1.7911000000000001
2010-03-08,0.2726
2010-03-09,-0.692
2010-03-10,0.2738
2010-03-11,0.1737
2010-03-12,0.0991
2010-03-15,-0.9901
2010-03-16,0.85
2010-03-17,0.3966
2010-03-18,-0.6667
2010-03-19,-1.044
2010-03-22,-0.3014
2010-03-23,0.6551
2010-03-24,-2.0025
2010-03-25,-0.7918
2010-03-26,0.7209
2010-03-29,1.1503
2010-03-30,0.4296
2010-03-31,-0.9814
2010-04-01,0.3812
2010-04-05,0.4051
2010-04-06,0.2017
2010-04-07,0.4026
2010-04-08,0.7268
2010-04-09,1.8164
2010-04-12,0.2199
2010-04-13,0.3414
2010-04-14,1.5310000000000001
2010-04-15,1.3643
2010-04-16,1.1806
2010-04-19,0.1634
2010-04-20,-0.3262
2010-04-21,0.2805
2010-04-22,0.4662
2010-04-23,0.3248
2010-04-26,0.0231
2010-04-27,-0.9281
2010-04-28,0.5855
2010-04-29,1.7928
2010-04-30,-1.5554000000000001
2010-05-03,1.4638
2010-05-04,-0.3435
2010-05-05,-2.3438
2010-05-06,-2.6824
2010-05-07,-2.4662
2010-05-10,4.5117
2010-05-11,0.0712
2010-05-12,1.1614
2010-05-13,-0.9606
2010-05-14,-3.454
2010-05-17,1.0292
2010-05-18,-2.2071
2010-05-19,-0.1488
2010-05-20,-3.378
2010-05-21,-0.4884
2010-05-24,-0.3617
2010-05-25,-0.8815
2010-05-26,0.8894
2010-05-27,3.5779
2010-05-28,-0.2253
2010-06-01,-2.007
2010-06-02,2.0225
2010-06-03,-0.1506
2010-06-04,-3.3425000000000002
2010-06-07,-1.144
2010-06-08,-0.0526
2010-06-09,-1.0
2010-06-10,2.605
2010-06-11,1.3731
2010-06-14,-0.3578
2010-06-15,3.0008
2010-06-16,1.2201
2010-06-17,-0.3936
2010-06-18,0.0741
2010-06-21,-1.0365
2010-06-22,-2.7431
2010-06-23,-1.0513
2010-06-24,-0.5442
2010-06-25,0.938
2010-06-28,1.2907
2010-06-29,-2.6249000000000002
2010-06-30,-1.0207
2010-07-01,-0.5288
2010-07-02,1.0898
2010-07-06,-1.8144
2010-07-07,3.1334
2010-07-08,1.3763
2010-07-09,0.4867
2010-07-12,-0.3569
2010-07-13,4.2466
2010-07-14,-0.1718
2010-07-15,-0.0492
2010-07-16,-2.0413
2010-07-19,-0.2762
2010-07-20,1.3595
2010-07-21,-0.0497
2010-07-22,4.4732
2010-07-23,1.5699
2010-07-26,1.8033000000000001
2010-07-27,-0.3451
2010-07-28,-0.1847
2010-07-29,-0.5782
2010-07-30,0.6048
2010-08-02,1.068
2010-08-03,-0.2068
2010-08-04,0.3683
2010-08-05,0.1147
2010-08-06,0.2749
2010-08-09,0.0
2010-08-10,-1.3479999999999999
2010-08-11,-3.0338
2010-08-12,0.2627
2010-08-13,-0.3097
2010-08-16,0.0478
2010-08-17,1.839
2010-08-18,-0.2111
2010-08-19,-1.5276
2010-08-20,0.3819
2010-08-23,-0.9272
2010-08-24,-1.6319
2010-08-25,0.1952
2010-08-26,-0.2922
2010-08-27,2.5885
2010-08-30,-2.428
2010-08-31,1.6101
2010-09-01,2.6651
2010-09-02,1.0524
2010-09-03,1.4811
2010-09-07,-0.6157
2010-09-08,0.6654
2010-09-09,0.2507
2010-09-10,0.0682
2010-09-13,1.5224
2010-09-14,0.6267
2010-09-15,1.6904
2010-09-16,-0.1531
2010-09-17,-0.8324
2010-09-20,0.0442
2010-09-21,-1.3248
2010-09-22,-0.537
2010-09-23,-0.6974
2010-09-24,1.5632000000000001
2010-09-27,-0.513
2010-09-28,1.861
2010-09-29,0.2862
2010-09-30,0.2414
2010-10-01,-0.854
2010-10-04,0.2429
2010-10-05,2.3133
2010-10-06,-0.0646
2010-10-07,-0.5387
2010-10-08,0.6066
2010-10-11,0.646
2010-10-12,-0.107
2010-10-13,0.8139
2010-10-14,-0.17
2010-10-15,-0.4895
2010-10-18,0.1497
2010-10-19,-0.9609
2010-10-20,2.1777
2010-10-21,-5.0433
2010-10-22,0.1111
2010-10-25,0.444
2010-10-26,-0.2431
2010-10-27,0.0665
2010-10-28,0.1328
2010-10-29,-0.7738
2010-11-01,0.2451
2010-11-02,0.2232
2010-11-03,0.334
2010-11-04,2.5743
2010-11-05,0.4327
2010-11-08,-0.1723
2010-11-09,-0.1079
2010-11-10,1.1882
2010-11-11,-0.4697
2010-11-12,-1.3085
2010-11-15,0.0435
2010-11-16,-1.6076000000000001
2010-11-17,0.1325
2010-11-18,0.2646
2010-11-19,0.2419
2010-11-22,0.9653
2010-11-23,-1.2386
2010-11-24,2.2442
2010-11-26,-0.2582
2010-11-29,-0.9924
2010-11-30,-0.4794
2010-12-01,2.5619
2010-12-02,1.4304000000000001
2010-12-03,1.4944
2010-12-06,-1.4517
2010-12-07,-0.5051
2010-12-08,-1.2267000000000001
2010-12-09,0.1071
2010-12-10,0.6631
2010-12-13,-0.3612
2010-12-14,-0.2772
2010-12-15,-0.2139
2010-12-16,1.6074000000000002
2010-12-17,-0.6328
2010-12-20,0.5094
2010-12-21,0.169
2010-12-22,1.1174
2010-12-23,-0.1877
2010-12-27,0.4178
2010-12-28,0.208
2010-12-29,-0.3529
2010-12-30,-0.3333
2010-12-31,-0.5644
2011-01-03,1.1562000000000001
2011-01-04,-0.6234
2011-01-05,0.1673
2011-01-06,-0.8977
2011-01-07,-0.1896
2011-01-10,0.1266
2011-01-11,0.801
2011-01-12,0.7946
2011-01-13,-0.0415
2011-01-14,0.6019
2011-01-18,1.2379
2011-01-19,-0.8152
2011-01-20,-0.8835
2011-01-21,-0.4768
2011-01-24,1.3122
2011-01-25,-0.185
2011-01-26,0.5973
2011-01-27,-0.3071
2011-01-28,-1.8074
2011-01-31,0.8994
2011-02-01,1.3109
2011-02-02,-0.1848
2011-02-03,-0.4115
2011-02-04,0.4132
2011-02-07,1.7284000000000002
2011-02-08,0.7686
2011-02-09,-0.6624
2011-02-10,0.2829
2011-02-11,-0.3022
2011-02-14,-0.485
2011-02-15,-0.0812
2011-02-16,-0.0203
2011-02-17,0.6505
2011-02-18,-0.0404
2011-02-22,-2.0206
2011-02-23,-1.423
2011-02-24,-0.7322
2011-02-25,1.2434
2011-02-28,0.2706
2011-03-01,-1.4739
2011-03-02,-0.0632
2011-03-03,2.509
2011-03-04,-1.3986
2011-03-07,-0.3546
2011-03-08,4.103
2011-03-09,-0.8848
2011-03-10,-2.5563000000000002
2011-03-11,0.229
2011-03-14,0.5401
2011-03-15,-1.4876
2011-03-16,-0.755
2011-03-17,0.1902
2011-03-18,1.2445
2011-03-21,2.0625
2011-03-22,-0.1633
2011-03-23,0.1431
2011-03-24,0.3062
2011-03-25,-0.3257
2011-03-28,-0.1429
2011-03-29,-0.1636
2011-03-30,1.6387
2011-03-31,1.0278
2011-04-01,1.2966
2011-04-04,0.7089
2011-04-05,0.8213
2011-04-06,-0.0388
2011-04-07,-1.1641
2011-04-08,-1.1386
2011-04-11,-0.6156
2011-04-12,-1.3387
2011-04-13,0.486
2011-04-14,0.1008
2011-04-15,1.1274
2011-04-18,-1.2741
2011-04-19,1.1696
2011-04-20,1.6543999999999999
2011-04-21,0.7255
2011-04-25,-0.1363
2011-04-26,1.4085
2011-04-27,0.5594
2011-04-28,0.4412
2011-04-29,0.1719
2011-05-02,0.7245
2011-05-03,-0.8518
2011-05-04,-0.9355
2011-05-05,-1.0407
2011-05-06,-0.1753
2011-05-09,1.9313
2011-05-10,0.2871
2011-05-11,-1.5076
2011-05-12,1.6663000000000001
2011-05-13,-0.3049
2011-05-16,1.1661
2011-05-17,-1.7385000000000002
2011-05-18,2.3654
2011-05-19,-0.4509
2011-05-20,-0.887
2011-05-23,-1.8279
2011-05-24,-0.1746
2011-05-25,1.1463
2011-05-26,-0.1537
2011-05-27,0.481
2011-05-31,2.2401
2011-06-01,-2.3970000000000002
2011-06-02,-0.2878
2011-06-03,-1.5777999999999999
2011-06-06,-1.173
2011-06-07,0.633
2011-06-08,-0.5308
2011-06-09,0.9684
2011-06-10,-1.3506
2011-06-13,2.0833
2011-06-14,0.2915
2011-06-15,-1.9574
2011-06-16,0.1581
2011-06-17,-0.375
2011-06-20,0.3368
2011-06-21,1.2833
2011-06-22,-0.4094
2011-06-23,-0.5285
2011-06-24,-0.4132
2011-06-27,0.8496
2011-06-28,1.1364
2011-06-29,0.8136
2011-06-30,0.5765
2011-07-01,1.7195
2011-07-05,-0.1503
2011-07-06,1.8999000000000001
2011-07-07,0.3138
2011-07-08,-0.2392
2011-07-11,-1.3651
2011-07-12,-0.1496
2011-07-13,-0.2622
2011-07-14,-1.3709
2011-07-15,0.2666
2011-07-18,-1.9559
2011-07-19,3.6994
2011-07-20,-0.8778
2011-07-21,0.1696
2011-07-22,-0.2257
2011-07-25,-0.5845
2011-07-26,-0.3224
2011-07-27,-2.0738
2011-07-28,-0.4469
2011-07-29,0.0585
2011-08-01,-0.0979
2011-08-02,-2.1176
2011-08-03,-0.641
2011-08-04,-4.3548
2011-08-05,0.6324
2011-08-08,-5.1948
2011-08-09,4.9271
2011-08-10,-4.3799
2011-08-11,4.2722
2011-08-12,0.9504
2011-08-15,1.2971
2011-08-16,-0.9087
2011-08-17,-0.4377
2011-08-18,-3.4541
2011-08-19,1.1709
2011-08-22,0.0643
2011-08-23,2.4416
2011-08-24,0.9199
2011-08-25,-1.8852
2011-08-26,2.4071
2011-08-29,3.3196
2011-08-30,0.3991
2011-08-31,0.3379
2011-09-01,-2.5357
2011-09-02,-2.4593
2011-09-06,-0.896
2011-09-07,1.9975
2011-09-08,0.7009
2011-09-09,-1.5763
2011-09-12,-0.416
2011-09-13,1.2949
2011-09-14,1.5051999999999999
2011-09-15,0.8531
2011-09-16,-0.8459
2011-09-19,-1.4422
2011-09-20,-0.8038
2011-09-21,-3.0127
2011-09-22,-1.8852
2011-09-23,0.7642
2011-09-26,1.8635000000000002
2011-09-27,1.2976
2011-09-28,-4.1369
2011-09-29,1.7963
2011-09-30,-3.8735
2011-10-03,-4.2086
2011-10-04,4.3468
2011-10-05,2.262
2011-10-06,1.7959
2011-10-07,-1.1403
2011-10-10,2.8074
2011-10-11,0.9314
2011-10-12,2.1602
2011-10-13,-0.9649
2011-10-14,0.8292
2011-10-17,-2.3438
2011-10-18,2.2526
2011-10-19,-2.1824
2011-10-20,0.9261
2011-10-21,1.1262
2011-10-24,2.2479
2011-10-25,-2.4808
2011-10-26,1.241
2011-10-27,0.6537
2011-10-28,-0.2841
2011-10-31,-2.3611
2011-11-01,-3.6898
2011-11-02,2.2511
2011-11-03,3.4293
2011-11-04,-0.2047
2011-11-07,-0.0615
2011-11-08,-0.2061
2011-11-09,-2.5408
2011-11-10,0.6783
2011-11-11,2.3158
2011-11-14,-0.8642
2011-11-15,0.851
2011-11-16,-0.4322
2011-11-17,-1.3849
2011-11-18,0.6707
2011-11-21,-1.2076
2011-11-22,0.8008
2011-11-23,-1.9026
2011-11-25,-0.8738
2011-11-28,3.5476
2011-11-29,0.9551
2011-11-30,4.4632
2011-12-01,-0.4135
2011-12-02,0.7315
2011-12-05,0.5888
2011-12-06,-1.0537
2011-12-07,-0.0986
2011-12-08,-1.5792000000000002
2011-12-09,1.7449
2011-12-12,-1.5573000000000001
2011-12-13,-0.5607
2011-12-14,-1.3492
2011-12-15,1.9188
2011-12-16,2.5035
2011-12-19,-2.286
2011-12-20,4.3591
2011-12-21,0.0575
2011-12-22,-0.0574
2011-12-23,0.7473
2011-12-27,-0.1141
2011-12-28,-1.1995
2011-12-29,1.1562999999999999
2011-12-30,-0.6096
2012-01-03,0.2108
2012-01-04,0.2104
2012-01-05,-0.8399
2012-01-06,-0.1925
2012-01-09,-0.1157
2012-01-10,0.3089
2012-01-11,-0.2887
2012-01-12,-0.6371
2012-01-13,0.0194
2012-01-17,0.3885
2012-01-18,0.7933
2012-01-19,0.5375
2012-01-20,-1.5657999999999999
2012-01-23,0.0582
2012-01-24,-0.2714
2012-01-25,0.6221
2012-01-26,0.7535
2012-01-27,0.2493
2012-01-30,0.1339
2012-01-31,0.5563
2012-02-01,2.1366
2012-02-02,-1.3820999999999999
2012-02-03,1.3258
2012-02-06,0.0
2012-02-07,-0.1121
2012-02-08,-0.4678
2012-02-09,1.0716
2012-02-10,-1.3393
2012-02-13,-1.1689
2012-02-14,-0.1717
2012-02-15,0.1529
2012-02-16,0.6487
2012-02-17,0.1327
2012-02-21,-0.6058
2012-02-22,-0.0952
2012-02-23,1.3537
2012-02-24,0.1317
2012-02-27,0.0
2012-02-28,-0.9017
2012-02-29,0.0569
2012-03-01,0.3031
2012-03-02,0.4911
2012-03-05,0.282
2012-03-06,-2.2306
2012-03-07,0.0575
2012-03-08,2.0694
2012-03-09,0.5069
2012-03-12,0.1121
2012-03-13,1.5112
2012-03-14,0.0919
2012-03-15,0.7896
2012-03-16,-0.2733
2012-03-19,-0.274
2012-03-20,-0.348
2012-03-21,-0.2206
2012-03-22,-0.5158
2012-03-23,0.537
2012-03-26,1.1604
2012-03-27,-0.2367
2012-03-28,0.2738
2012-03-29,-0.0546
2012-03-30,-0.255
2012-04-02,0.4199
2012-04-03,0.4727
2012-04-04,-0.8505
2012-04-05,-0.8213
2012-04-09,-0.3497
2012-04-10,-1.4958
2012-04-11,1.0499
2012-04-12,1.1132
2012-04-13,-0.7706
2012-04-16,0.3513
2012-04-17,0.4238
2012-04-18,-0.0367
2012-04-19,0.1101
2012-04-20,0.6417
2012-04-23,-1.1478
2012-04-24,-0.0184
2012-04-25,1.8323
2012-04-26,-0.9451
2012-04-27,0.5321
2012-04-30,-0.511
2012-05-01,0.2935
2012-05-02,-0.2561
2012-05-03,0.5502
2012-05-04,-2.0244
2012-05-07,-0.242
2012-05-08,0.3732
2012-05-09,-0.1301
2012-05-10,-0.2792
2012-05-11,-0.336
2012-05-14,-1.9854
2012-05-15,-1.1275
2012-05-16,-0.8891
2012-05-17,-2.2231
2012-05-18,-0.8775
2012-05-21,1.7304
2012-05-22,0.0593
2012-05-23,0.9093
2012-05-24,0.0196
2012-05-25,-0.8813
2012-05-29,0.1976
2012-05-30,-1.6564999999999999
2012-05-31,1.6042
2012-06-01,-0.8092
2012-06-04,-0.0796
2012-06-05,0.3584
2012-06-06,2.3413
2012-06-07,0.6979
2012-06-08,0.8856
2012-06-11,-1.2023
2012-06-12,1.159
2012-06-13,-0.7638
2012-06-14,0.7889
2012-06-15,-0.21
2012-06-18,0.6696
2012-06-19,-0.3611
2012-06-20,-0.3624
2012-06-21,-2.1248
2012-06-22,1.1539
2012-06-25,-1.9527999999999999
2012-06-26,-0.2564
2012-06-27,0.2966
2012-06-28,-0.3942
2012-06-29,1.0291
2012-07-02,1.43
2012-07-03,1.4484
2012-07-05,-0.0571
2012-07-06,-1.9809999999999999
2012-07-09,-3.3813
2012-07-10,-0.5028
2012-07-11,-0.4851
2012-07-12,-0.3656
2012-07-13,1.6106
2012-07-16,-0.4013
2012-07-17,0.3626
2012-07-18,0.9835
2012-07-19,0.7951
2012-07-20,-1.1832
2012-07-23,-0.6586
2012-07-24,-2.0691
2012-07-25,1.2308
2012-07-26,0.9321
2012-07-27,1.6864
2012-07-30,-0.3356
2012-07-31,-0.9311
2012-08-01,-1.5796999999999999
2012-08-02,-1.3206
2012-08-03,3.0677
2012-08-06,-0.1598
2012-08-07,0.5802
2012-08-08,-0.2597
2012-08-09,-0.1803
2012-08-10,0.1204
2012-08-13,0.1804
2012-08-14,-0.02
2012-08-15,0.7805
2012-08-16,0.5957
2012-08-17,-0.079
2012-08-20,-0.0988
2012-08-21,-0.3955
2012-08-22,0.9331
2012-08-23,-0.6294
2012-08-24,0.5938
2012-08-27,-0.61
2012-08-28,0.9305
2012-08-29,-0.1177
2012-08-30,-0.8837
2012-08-31,0.3566
2012-09-04,0.691
2012-09-05,-0.7647
2012-09-06,0.3754
2012-09-07,1.3583
2012-09-10,-0.738
2012-09-11,0.1565
2012-09-12,0.1758
2012-09-13,1.6771
2012-09-14,0.6137
2012-09-17,-0.1144
2012-09-18,-0.5725
2012-09-19,0.595
2012-09-20,0.5152
2012-09-21,-0.019
2012-09-24,-0.038
2012-09-25,-1.2536
2012-09-26,-0.3462
2012-09-27,-0.3667
2012-09-28,0.1744
2012-10-01,0.058
2012-10-02,0.2513
2012-10-03,0.3085
2012-10-04,0.5382
2012-10-05,0.497
2012-10-08,-0.3044
2012-10-09,-1.3929
2012-10-10,-0.9481
2012-10-11,0.1563
2012-10-12,-0.078
2012-10-15,0.4294
2012-10-16,1.2828
2012-10-17,1.7079
2012-10-18,-0.4906
2012-10-19,-0.7584
2012-10-22,0.4585
2012-10-23,-1.6545999999999998
2012-10-24,-0.5608
2012-10-25,-0.2334
2012-10-26,0.6823
2012-10-31,-0.7164
2012-11-01,3.6076
2012-11-02,-6.8511
2012-11-05,0.8082
2012-11-06,0.9865
2012-11-07,-2.4721
2012-11-08,-1.3287
2012-11-09,-0.5179
2012-11-12,-0.2707
2012-11-13,-1.5452
2012-11-14,-2.3542
2012-11-15,-0.5213
2012-11-16,0.8515
2012-11-19,1.6237
2012-11-20,0.0639
2012-11-21,-0.0426
2012-11-23,1.4271
2012-11-26,0.357
2012-11-27,-1.0044
2012-11-28,0.5707
2012-11-29,0.3993
2012-11-30,-0.2093
2012-12-03,-1.5104
2012-12-04,0.2769
2012-12-05,0.3611
2012-12-06,0.9101
2012-12-07,0.0419
2012-12-10,0.1677
2012-12-11,-0.0837
2012-12-12,-0.3561
2012-12-13,-0.7778
2012-12-14,-0.5932
2012-12-17,0.9804
2012-12-18,0.3799
2012-12-19,1.0723
2012-12-20,0.2496
2012-12-21,-0.8923
2012-12-24,0.4816
2012-12-26,-0.9377
2012-12-27,0.4838
2012-12-28,-0.9001
2012-12-31,0.8027
2013-01-02,2.1794000000000002
2013-01-03,0.3897
2013-01-04,1.3687
2013-01-07,-0.8464
2013-01-08,5.122
2013-01-09,-1.0441
2013-01-10,-0.5862
2013-01-11,0.3145
2013-01-14,0.3723
2013-01-15,0.6246
2013-01-16,0.0388
2013-01-17,0.9114
2013-01-18,0.5573
2013-01-22,-0.5924
2013-01-23,-0.4037
2013-01-24,0.5597
2013-01-25,-0.1344
2013-01-28,-1.4223
2013-01-29,1.7241
2013-01-30,-0.1156
2013-01-31,-0.6363
2013-02-01,1.3584
2013-02-04,-0.0383
2013-02-05,0.6512
2013-02-06,0.6851
2013-02-07,-0.0756
2013-02-08,-0.6809
2013-02-11,-0.1524
2013-02-12,0.534
2013-02-13,0.8727
2013-02-14,-0.1881
2013-02-15,0.0754
2013-02-19,1.205
2013-02-20,-2.7535
2013-02-21,-0.0765
2013-02-22,1.1296
2013-02-25,-1.3631
2013-02-26,0.691
2013-02-27,1.7917999999999998
2013-02-28,1.0112
2013-03-01,-0.8713
2013-03-04,-0.1309
2013-03-05,0.7491
2013-03-06,1.0781
2013-03-07,0.2758
2013-03-08,1.3204
2013-03-11,0.181
2013-03-12,0.0181
2013-03-13,-0.0542
2013-03-14,0.2711
2013-03-15,0.3965
2013-03-18,-0.2513
2013-03-19,0.45
2013-03-20,1.5051
2013-03-21,-0.6884
2013-03-22,-0.0355
2013-03-25,-0.4267
2013-03-26,1.1607
2013-03-27,0.3354
2013-03-28,0.8973
2013-04-01,-0.6626
2013-04-02,0.4564
2013-04-03,-1.0309
2013-04-04,0.053
2013-04-05,-1.0235
2013-04-08,0.5349
2013-04-09,0.0887
2013-04-10,1.4352
2013-04-11,0.4017
2013-04-12,-1.009
2013-04-15,-2.6538
2013-04-16,0.8485
2013-04-17,-1.5217
2013-04-18,-0.7999
2013-04-19,0.9346
2013-04-22,0.6899
2013-04-23,1.2622
2013-04-24,1.0506
2013-04-25,-0.5841
2013-04-26,-1.3886
2013-04-29,-0.0722
2013-04-30,1.355
2013-05-01,-1.123
2013-05-02,0.2344
2013-05-03,0.7014
2013-05-06,0.1429
2013-05-07,0.1248
2013-05-08,0.57
2013-05-09,-0.8856
2013-05-10,0.9471
2013-05-13,-0.9028
2013-05-14,0.5716
2013-05-15,0.6572
2013-05-16,-0.1765
2013-05-17,0.8839
2013-05-20,-0.0175
2013-05-21,-0.1227
2013-05-22,-0.6668
2013-05-23,0.1413
2013-05-24,-0.8291
2013-05-28,0.4447
2013-05-29,-0.3542
2013-05-30,1.7238
2013-05-31,-0.9085
2013-06-03,0.2292
2013-06-04,-0.4749
2013-06-05,-1.4139
2013-06-06,0.8964
2013-06-07,1.2793
2013-06-10,0.3333
2013-06-11,-0.5945
2013-06-12,-1.4072
2013-06-13,2.2123
2013-06-14,-0.4364
2013-06-17,0.1753
2013-06-18,0.35
2013-06-19,-1.2905
2013-06-20,-2.2615
2013-06-21,-0.5242
2013-06-24,-0.3634
2013-06-25,0.0547
2013-06-26,0.1823
2013-06-27,0.8188
2013-06-28,-0.3609
2013-07-01,1.3403
2013-07-02,-0.2681
2013-07-03,0.1434
2013-07-05,1.3243
2013-07-08,0.4945
2013-07-09,1.5817
2013-07-10,0.5017
2013-07-11,2.1174
2013-07-12,0.5563
2013-07-15,0.1844
2013-07-16,-0.5522
2013-07-17,-0.0841
2013-07-18,0.7578
2013-07-19,-0.4179
2013-07-22,0.1007
2013-07-23,-0.1174
2013-07-24,-1.4605000000000001
2013-07-25,-0.6133
2013-07-26,-0.6856
2013-07-29,1.3807
2013-07-30,-0.171
2013-07-31,0.0
2013-08-01,2.6032
2013-08-02,0.9514
2013-08-05,-0.8433
2013-08-06,-0.8338
2013-08-07,0.0504
2013-08-08,1.4118
2013-08-09,-0.3646
2013-08-12,0.1663
2013-08-13,0.2159
2013-08-14,-0.0663
2013-08-15,-1.8405
2013-08-16,0.152
2013-08-19,-0.0843
2013-08-20,0.1688
2013-08-21,-0.7415
2013-08-22,1.1715
2013-08-23,0.4195
2013-08-26,0.3844
2013-08-27,-2.1974
2013-08-28,0.1021
2013-08-29,0.6802
2013-08-30,-0.6756
2013-09-03,-0.7482
2013-09-04,0.4283
2013-09-05,-0.2218
2013-09-06,0.0342
2013-09-09,1.0937999999999999
2013-09-10,0.5748
2013-09-11,0.0336
2013-09-12,-0.6049
2013-09-13,-0.2367
2013-09-16,2.22
2013-09-17,-1.3428
2013-09-18,1.1931
2013-09-19,-0.1827
2013-09-20,0.2163
2013-09-23,0.2656
2013-09-24,0.0166
2013-09-25,-0.2483
2013-09-26,0.5144
2013-09-27,-1.5189
2013-09-30,0.8047
2013-10-01,1.5965
2013-10-02,-1.3259
2013-10-03,-0.9124
2013-10-04,0.6697
2013-10-07,0.2162
2013-10-08,-0.2655
2013-10-09,-0.5491
2013-10-10,1.9407999999999999
2013-10-11,0.8534
2013-10-14,0.7648
2013-10-15,-1.0982
2013-10-16,0.6695
2013-10-17,1.7843
2013-10-18,0.7012
2013-10-21,0.5697
2013-10-22,1.0858
2013-10-23,-1.3854
2013-10-24,0.3315
2013-10-25,1.1328
2013-10-28,-0.1711
2013-10-29,-0.2493
2013-10-30,-0.703
2013-10-31,0.944
2013-11-01,-0.4208
2013-11-04,0.6887
2013-11-05,-0.4682
2013-11-06,0.9251
2013-11-07,-1.4914
2013-11-08,1.3247
2013-11-11,0.7315
2013-11-12,-0.4944
2013-11-13,1.0714
2013-11-14,-0.2612
2013-11-15,0.0308
2013-11-18,-0.2464
2013-11-19,-0.602
2013-11-20,-0.7765
2013-11-21,0.3287
2013-11-22,0.156
2013-11-25,0.0623
2013-11-26,0.2024
2013-11-27,0.901
2013-11-29,-0.0462
2013-12-02,0.077
2013-12-03,-1.1698
2013-12-04,-0.623
2013-12-05,0.4231
2013-12-06,0.9519
2013-12-09,-0.1546
2013-12-10,-0.48
2013-12-11,-1.6646
2013-12-12,0.3006
2013-12-13,0.4732
2013-12-16,1.0518
2013-12-17,0.1554
2013-12-18,0.9462
2013-12-19,-0.461
2013-12-20,0.8953
2013-12-23,0.7497
2013-12-24,0.82
2013-12-26,0.6025
2013-12-27,-0.1048
2013-12-30,1.214
2013-12-31,0.4146
2014-01-02,-1.0028
2014-01-03,-0.4171
2014-01-06,-0.5236
2014-01-07,0.4662
2014-01-08,2.0955
2014-01-09,-0.6744
2014-01-10,0.4428
2014-01-13,-1.3519
2014-01-14,1.6684
2014-01-15,-0.3663
2014-01-16,0.0
2014-01-17,-1.1176
2014-01-21,-0.1041
2014-01-22,-0.268
2014-01-23,-1.03
2014-01-24,-2.7451
2014-01-27,-1.2872
2014-01-28,0.4259
2014-01-29,-0.4869
2014-01-30,1.3415
2014-01-31,-0.6385
2014-02-03,-3.7304
2014-02-04,1.156
2014-02-05,0.2736
2014-02-06,0.321
2014-02-07,1.584
2014-02-10,-0.126
2014-02-11,0.6624
2014-02-12,0.1723
2014-02-13,0.7507
2014-02-14,0.5433
2014-02-18,0.3242
2014-02-19,-0.7079
2014-02-20,0.5115
2014-02-21,-0.3238
2014-02-24,-0.4177
2014-02-25,0.3573
2014-02-26,0.5263
2014-02-27,0.8777
2014-02-28,1.0075
2014-03-03,-1.2695
2014-03-04,0.6429
2014-03-05,0.2738
2014-03-06,-0.273
2014-03-07,-0.0304
2014-03-10,-0.2586
2014-03-11,-0.7627
2014-03-12,-0.0307
2014-03-13,-1.3684
2014-03-14,0.5612
2014-03-17,0.6976
2014-03-18,0.7851
2014-03-19,-0.9317
2014-03-20,-0.3084
2014-03-21,0.1392
2014-03-24,-0.8649
2014-03-25,-0.0467
2014-03-26,-0.9196
2014-03-27,0.1888
2014-03-28,0.9107
2014-03-31,2.8474
2014-04-01,1.4372
2014-04-02,0.1342
2014-04-03,-0.6851
2014-04-04,-0.9598
2014-04-07,-0.9388
2014-04-08,0.6573
2014-04-09,0.5923
2014-04-10,-0.8001
2014-04-11,-1.5066000000000002
2014-04-14,0.7262
2014-04-15,1.2885
2014-04-16,0.5604
2014-04-17,0.256
2014-04-21,0.7661
2014-04-22,0.805
2014-04-23,-0.6211
2014-04-24,0.2381
2014-04-25,-0.3266
2014-04-28,0.0596
2014-04-29,0.3288
2014-04-30,0.447
2014-05-01,-0.3411
2014-05-02,-0.759
2014-05-05,0.09
2014-05-06,-0.5544
2014-05-07,0.1657
2014-05-08,0.3309
2014-05-09,-0.1649
2014-05-12,1.3666
2014-05-13,-0.7556
2014-05-14,-0.3135
2014-05-15,-1.198
2014-05-16,0.2425
2014-05-19,0.7409
2014-05-20,-1.2307
2014-05-21,0.3191
2014-05-22,-0.1515
2014-05-23,0.1062
2014-05-27,-0.0606
2014-05-28,0.0152
2014-05-29,0.6216
2014-05-30,0.3315
2014-06-02,-0.1352
2014-06-03,-0.4211
2014-06-04,-0.0755
2014-06-05,0.5441
2014-06-06,0.8718
2014-06-09,0.1788
2014-06-10,-0.1487
2014-06-11,-0.7895
2014-06-12,-0.7508
2014-06-13,0.469
2014-06-16,-1.1595
2014-06-17,1.0512
2014-06-18,-0.392
2014-06-19,0.9233
2014-06-20,-0.075
2014-06-23,-0.3602
2014-06-24,-0.5874
2014-06-25,0.5909
2014-06-26,-0.1205
2014-06-27,1.0556
2014-06-30,0.0
2014-07-01,0.7462
2014-07-02,-1.1406
2014-07-03,0.3446
2014-07-07,-0.8213
2014-07-08,-0.271
2014-07-09,0.1208
2014-07-10,-0.0905
2014-07-11,0.1358
2014-07-14,0.2864
2014-07-15,0.4208
2014-07-16,-0.7034
2014-07-17,-1.9893999999999998
2014-07-18,1.5685
2014-07-21,-0.9841
2014-07-22,-2.5535
2014-07-23,-0.0941
2014-07-24,0.1885
2014-07-25,-0.4546
2014-07-28,-0.4882
2014-07-29,-0.4451
2014-07-30,-0.8303
2014-07-31,-1.6261
2014-08-01,0.0491
2014-08-04,0.409
2014-08-05,-0.668
2014-08-06,0.9021
2014-08-07,0.0975
2014-08-08,1.2666
2014-08-11,-0.3207
2014-08-12,0.3057
2014-08-13,1.2189
2014-08-14,0.0475
2014-08-15,0.2534
2014-08-18,0.6003
2014-08-19,0.7067
2014-08-20,-0.5925
2014-08-21,0.2824
2014-08-22,-0.4849
2014-08-25,0.1572
2014-08-26,0.3766
2014-08-27,0.0625
2014-08-28,0.0313
2014-08-29,0.2031
2014-09-02,0.608
2014-09-03,-0.5733
2014-09-04,0.8883
2014-09-05,0.7105
2014-09-08,-0.7515
2014-09-09,-1.2826
2014-09-10,-0.5322
2014-09-11,0.3935
2014-09-12,-1.7086999999999999
2014-09-15,0.0957
2014-09-16,-0.2709
2014-09-17,-1.7574999999999998
2014-09-18,0.1789
2014-09-19,-0.7143
2014-09-22,0.0654
2014-09-23,-0.4248
2014-09-24,0.0985
2014-09-25,-0.2623
2014-09-26,0.8876
2014-09-29,0.6028
2014-09-30,-1.7004000000000001
2014-10-01,-2.3723
2014-10-02,0.1181
2014-10-03,1.3147
2014-10-06,0.1996
2014-10-07,-2.1252
2014-10-08,1.6455
2014-10-09,-2.2697
2014-10-10,-1.8101
2014-10-13,-2.2957
2014-10-14,0.3738
2014-10-15,0.4433
2014-10-16,1.7832
2014-10-17,1.8213
2014-10-20,2.2828
2014-10-21,2.0153
2014-10-22,-1.0776
2014-10-23,1.964
2014-10-24,0.2266
2014-10-27,-2.5032
2014-10-28,1.4577
2014-10-29,-0.3592
2014-10-30,1.1142
2014-10-31,0.8589
2014-11-03,-0.3695
2014-11-04,0.9396
2014-11-05,2.1345
2014-11-06,0.2514
2014-11-07,1.5204
2014-11-10,1.2043
2014-11-11,-0.4424
2014-11-12,-0.1379
2014-11-13,-0.3376
2014-11-14,-0.1848
2014-11-17,1.0026
2014-11-18,-0.7483
2014-11-19,-0.2462
2014-11-20,-0.1234
2014-11-21,0.5405
2014-11-24,0.3687
2014-11-25,-0.1071
2014-11-26,0.0306
2014-11-28,-0.0613
2014-12-01,-0.2299
2014-12-02,0.384
2014-12-03,1.6526
2014-12-04,0.2107
2014-12-05,-0.4657
2014-12-08,-0.5735
2014-12-09,0.5768
2014-12-10,-1.313
2014-12-11,0.4435
2014-12-12,-1.5834000000000001
2014-12-15,-1.2067
2014-12-16,-0.0626
2014-12-17,2.2563
2014-12-18,2.0686
2014-12-19,0.7807
2014-12-22,-0.0596
2014-12-23,0.5217
2014-12-24,0.1779
2014-12-26,0.444
2014-12-29,0.7663
2014-12-30,-0.4095
2014-12-31,-1.8502
2015-01-02,-0.2843
2015-01-05,-3.0758
2015-01-06,-1.0681
2015-01-07,0.5789
2015-01-08,2.8468999999999998
2015-01-09,-0.9681
2015-01-12,-0.1527
2015-01-13,-0.306
2015-01-14,-0.8746
2015-01-15,-1.2692999999999999
2015-01-16,1.0818
2015-01-20,-0.4033
2015-01-21,0.2025
2015-01-22,0.5751
2015-01-23,-1.4681
2015-01-26,0.4548
2015-01-27,-1.38
2015-01-28,-1.2721
2015-01-29,1.4656
2015-01-30,0.1746
2015-02-02,0.6814
2015-02-03,-0.1102
2015-02-04,-0.3939
2015-02-05,0.9332
2015-02-06,0.8149
2015-02-09,-1.057
2015-02-10,0.1257
2015-02-11,-0.0785
2015-02-12,0.6124
2015-02-13,0.7648
2015-02-17,1.0688
2015-02-18,0.8889
2015-02-19,0.0152
2015-02-20,0.5012
2015-02-23,0.1511
2015-02-24,0.0453
2015-02-25,-0.6787
2015-02-26,0.6226
2015-02-27,-0.5886
2015-03-02,0.9564
2015-03-03,-0.9173
2015-03-04,-0.4098
2015-03-05,-0.8991
2015-03-06,-1.1687
2015-03-09,-0.14
2015-03-10,-0.67
2015-03-11,-0.6118
2015-03-12,0.3157
2015-03-13,-0.7237
2015-03-16,1.0935
2015-03-17,-0.2822
2015-03-18,0.5345
2015-03-19,-0.4848
2015-03-20,-0.6442
2015-03-23,0.253
2015-03-24,0.1735
2015-03-25,-0.8189
2015-03-26,0.0
2015-03-27,0.3176
2015-03-30,0.823
2015-03-31,-0.2826
2015-04-01,0.2047
2015-04-02,-0.7855
2015-04-06,0.3642
2015-04-07,-0.426
2015-04-08,0.4912
2015-04-09,-0.1419
2015-04-10,0.2526
2015-04-13,-0.0945
2015-04-14,-0.205
2015-04-15,-0.4739
2015-04-16,0.0159
2015-04-17,-0.2698
2015-04-20,-0.0477
2015-04-21,-0.1433
2015-04-22,0.2551
2015-04-23,0.0954
2015-04-24,0.5561
2015-04-27,-0.3476
2015-04-28,-0.0159
2015-04-29,-0.3664
2015-04-30,-0.7674
2015-05-01,3.1899
2015-05-04,-0.1405
2015-05-05,-1.5009000000000001
2015-05-06,0.1587
2015-05-07,-0.1585
2015-05-08,0.254
2015-05-11,-0.1583
2015-05-12,0.7136
2015-05-13,1.2911000000000001
2015-05-14,1.3679000000000001
2015-05-15,-0.0153
2015-05-18,0.7055
2015-05-19,0.6549
2015-05-20,-0.9532
2015-05-21,-0.8249
2015-05-22,-0.647
2015-05-26,-0.8217
2015-05-27,0.7972
2015-05-28,0.0155
2015-05-29,-1.1165
2015-06-01,0.2039
2015-06-02,0.0782
2015-06-03,0.2971
2015-06-04,-0.343
2015-06-05,0.5632
2015-06-08,-0.8245
2015-06-09,0.6275
2015-06-10,0.1403
2015-06-11,0.8406
2015-06-12,-0.3087
2015-06-15,-0.48
2015-06-16,0.9802
2015-06-17,-0.1387
2015-06-18,0.7098
2015-06-19,0.0306
2015-06-22,0.3216
2015-06-23,-0.4885
2015-06-24,-1.12
2015-06-25,-0.2638
2015-06-26,0.3111
2015-06-29,-1.1476
2015-06-30,0.0471
2015-07-01,0.1255
2015-07-02,-0.094
2015-07-06,0.0784
2015-07-07,0.7206
2015-07-08,-1.3375
2015-07-09,-0.0473
2015-07-10,0.4258
2015-07-13,0.9108
2015-07-14,-0.498
2015-07-15,0.0
2015-07-16,0.563
2015-07-17,-0.5754
2015-07-20,0.0469
2015-07-21,-1.3759000000000001
2015-07-22,-0.1268
2015-07-23,-0.8571
2015-07-24,-1.1367
2015-07-27,-0.1457
2015-07-28,1.4989
2015-07-29,6.5008
2015-07-30,1.7332
2015-07-31,0.4296
2015-08-03,-0.7523
2015-08-04,0.9661
2015-08-05,1.2955
2015-08-06,-0.6394
2015-08-07,0.6143
2015-08-10,1.6427
2015-08-11,-1.0584
2015-08-12,-0.5782
2015-08-13,0.3635
2015-08-14,1.2169
2015-08-17,0.3149
2015-08-18,-0.371
2015-08-19,-1.0311
2015-08-20,-1.5048
2015-08-21,-0.6758
2015-08-24,-2.1593999999999998
2015-08-25,-0.9221
2015-08-26,1.7852000000000001
2015-08-27,1.4241
2015-08-28,0.0739
2015-08-31,-0.5169
2015-09-01,-2.3159
2015-09-02,1.0334
2015-09-03,1.3538000000000001
2015-09-04,-0.1633
2015-09-08,1.1149
2015-09-09,-0.3528
2015-09-10,-1.2836
2015-09-11,0.7323
2015-09-14,-1.0089
2015-09-15,2.533
2015-09-16,0.9209
2015-09-17,-0.898
2015-09-18,-1.8561999999999999
2015-09-21,0.7148
2015-09-22,-1.316
2015-09-23,-0.0899
2015-09-24,-1.6197
2015-09-25,-0.1067
2015-09-28,-2.1059
2015-09-29,1.2315
2015-09-30,1.5707
2015-10-01,1.9405999999999999
2015-10-02,1.1005
2015-10-05,0.6325
2015-10-06,-1.0671
2015-10-07,1.4775
2015-10-08,1.3832
2015-10-09,0.9048
2015-10-12,0.4412
2015-10-13,-0.581
2015-10-14,-0.6984
2015-10-15,0.0287
2015-10-16,0.2152
2015-10-19,0.2148
2015-10-20,0.7144
2015-10-21,-0.8796
2015-10-22,2.0323
2015-10-23,0.1543
2015-10-26,-0.1401
2015-10-27,-0.4909
2015-10-28,1.2685
2015-10-29,0.682
2015-10-30,1.6865
2015-11-02,3.3442
2015-11-03,-1.2678
2015-11-04,-2.0465
2015-11-05,0.3004
2015-11-06,-0.2587
2015-11-09,-1.1057
2015-11-10,0.8144
2015-11-11,0.0274
2015-11-12,-3.0933
2015-11-13,1.0169
2015-11-16,0.811
2015-11-17,-0.1803
2015-11-18,2.0286
2015-11-19,0.3405
2015-11-20,0.8279
2015-11-23,-0.5923
2015-11-24,0.5823
2015-11-25,0.7943
2015-11-27,0.187
2015-11-30,-0.7066
2015-12-01,0.6579
2015-12-02,-1.3872
2015-12-03,-0.6357
2015-12-04,1.2115
2015-12-07,-0.1748
2015-12-08,-0.8354
2015-12-09,-0.7065
2015-12-10,0.4789
2015-12-11,-0.7762
2015-12-14,-0.4255
2015-12-15,0.703
2015-12-16,0.5338
2015-12-17,-1.6200999999999999
2015-12-18,-1.5915
2015-12-21,0.7734
2015-12-22,0.9071
2015-12-23,1.5904
2015-12-24,-0.2178
2015-12-28,0.5593
2015-12-29,0.4477
2015-12-30,-0.5673
2015-12-31,-1.3176
2016-01-04,-0.7846
2016-01-05,-0.5688
2016-01-06,-0.6837
2016-01-07,-1.9949
2016-01-08,0.172
2016-01-11,-0.0859
2016-01-12,0.0286
2016-01-13,-1.3316
2016-01-14,-0.2322
2016-01-15,-0.9891
2016-01-19,0.0735
2016-01-20,-0.4257
2016-01-21,-1.6659000000000002
2016-01-22,2.3238
2016-01-25,-1.5971
2016-01-26,5.4293
2016-01-27,-0.3405
2016-01-28,0.5979
2016-01-29,3.1555
2016-02-01,-0.8093
2016-02-02,-1.3691
2016-02-03,2.5659
2016-02-04,-1.244
2016-02-05,-1.5504
2016-02-08,2.6856
2016-02-09,1.8896
2016-02-10,-0.2957
2016-02-11,0.1752
2016-02-12,1.3186
2016-02-16,-1.7928
2016-02-17,-0.7843
2016-02-18,-0.0954
2016-02-19,-0.573
2016-02-22,-0.1098
2016-02-23,0.0962
2016-02-24,1.4272
2016-02-25,0.5818
2016-02-26,-1.3586
2016-02-29,0.5182
2016-03-01,1.0718
2016-03-02,-0.1208
2016-03-03,1.0617
2016-03-04,1.0638
2016-03-07,-0.3684
2016-03-08,0.0924
2016-03-09,0.0792
2016-03-10,-0.6328
2016-03-11,0.544
2016-03-14,-0.7126
2016-03-15,1.2227999999999999
2016-03-16,0.5121
2016-03-17,0.9275
2016-03-18,-0.4789
2016-03-21,0.6373
2016-03-22,0.8917
2016-03-23,0.0897
2016-03-24,-0.9598
2016-03-28,1.1888
2016-03-29,0.2554
2016-03-30,0.2802
2016-03-31,-0.4065
2016-04-01,0.8672
2016-04-04,-0.2276
2016-04-05,-1.4827
2016-04-06,0.3087
2016-04-07,-0.8079
2016-04-08,0.0129
2016-04-11,0.0
2016-04-12,0.2973
2016-04-13,0.7733
2016-04-14,0.3325
2016-04-15,1.0198
2016-04-18,0.4795
2016-04-19,-0.226
2016-04-20,0.4028
2016-04-21,-1.4918
2016-04-22,1.3998
2016-04-25,-0.4518
2016-04-26,1.1516
2016-04-27,0.0375
2016-04-28,-0.8379
2016-04-29,-4.1493
2016-05-02,1.1184
2016-05-03,-1.4314
2016-05-04,-0.2508
2016-05-05,0.6617
2016-05-06,0.2892
2016-05-09,0.354
2016-05-10,0.6924
2016-05-11,-0.3243
2016-05-12,1.0413000000000001
2016-05-13,-0.8502
2016-05-16,0.5587
2016-05-17,-2.584
2016-05-18,-0.1989
2016-05-19,-0.5316
2016-05-20,0.6413
2016-05-23,-0.7168
2016-05-24,2.126
2016-05-25,-0.0393
2016-05-26,0.1048
2016-05-27,0.929
2016-05-31,0.1556
2016-06-01,-0.0647
2016-06-02,0.1813
2016-06-03,-0.1939
2016-06-06,-0.1425
2016-06-07,0.5189
2016-06-08,0.2968
2016-06-09,0.0901
2016-06-10,0.5271
2016-06-13,-1.8159
2016-06-14,-0.4428
2016-06-15,-0.157
2016-06-16,0.2358
2016-06-17,-0.1961
2016-06-20,1.6634
2016-06-21,0.0773
2016-06-22,0.811
2016-06-23,2.3369
2016-06-24,-4.2301
2016-06-27,-2.8013
2016-06-28,1.4611
2016-06-29,1.3608
2016-06-30,3.1413
2016-07-01,0.0505
2016-07-05,-0.5684
2016-07-06,0.0254
2016-07-07,-0.3175
2016-07-08,1.6562999999999999
2016-07-11,0.5138
2016-07-12,0.2618
2016-07-13,-0.2239
2016-07-14,-0.0499
2016-07-15,-0.3367
2016-07-18,-0.0125
2016-07-19,-0.3629
2016-07-20,0.8541
2016-07-21,-0.4483
2016-07-22,0.6505
2016-07-25,-0.261
2016-07-26,0.4378
2016-07-27,-0.7223
2016-07-28,-0.4265
2016-07-29,-1.5117
2016-08-01,-1.0744
2016-08-02,-0.9439
2016-08-03,0.0131
2016-08-04,0.2088
2016-08-05,-0.2475
2016-08-08,-0.5484
2016-08-09,-0.2494
2016-08-10,0.3159
2016-08-11,-0.1574
2016-08-12,-0.6833
2016-08-15,-0.1058
2016-08-16,-0.4503
2016-08-17,0.8382
2016-08-18,1.3721999999999999
2016-08-19,-0.0651
2016-08-22,0.4168
2016-08-23,0.3113
2016-08-24,0.3103
2016-08-25,0.6316
2016-08-26,0.5124
2016-08-29,0.3951
2016-08-30,-0.1142
2016-08-31,-0.9023
2016-09-01,-0.0128
2016-09-02,1.5262
2016-09-06,0.379
2016-09-07,1.0446
2016-09-08,-1.3451
2016-09-09,-2.2093
2016-09-12,1.3555
2016-09-13,-1.2355
2016-09-14,-0.2192
2016-09-15,0.685
2016-09-16,-0.3851
2016-09-19,1.3014999999999999
2016-09-20,0.1399
2016-09-21,-0.3811
2016-09-22,1.3262
2016-09-23,-0.8432
2016-09-26,-0.9265
2016-09-27,-0.4099
2016-09-28,1.1191
2016-09-29,-1.7809
2016-09-30,0.259
2016-10-03,-0.0646
2016-10-04,-1.6287
2016-10-05,0.0131
2016-10-06,0.6964
2016-10-07,-1.3048
2016-10-10,0.4098
2016-10-11,-1.1587
2016-10-12,0.7859
2016-10-13,-0.0925
2016-10-14,0.5821
2016-10-17,0.2236
2016-10-18,0.2493
2016-10-19,0.1178
2016-10-20,-0.6668
2016-10-21,1.5664
2016-10-24,-0.2074
2016-10-25,0.0
2016-10-26,-0.9481
2016-10-27,0.0131
2016-10-28,-4.2737
2016-10-31,-1.7256
2016-11-01,-1.1478
2016-11-02,0.4248
2016-11-03,-0.0705
2016-11-04,0.762
2016-11-07,4.0891
2016-11-08,1.8969
2016-11-09,-0.8318
2016-11-10,-4.8995
2016-11-11,0.588
2016-11-14,2.3104
2016-11-15,-0.1768
2016-11-16,0.2589
2016-11-17,0.0136
2016-11-18,0.0951
2016-11-21,0.8011
2016-11-22,1.6837
2016-11-23,0.7418
2016-11-25,0.0263
2016-11-28,0.5258
2016-11-29,-1.0331
2016-11-30,-3.3034
2016-12-01,1.2298
2016-12-02,0.3645
2016-12-05,-1.3046
2016-12-06,0.5724
2016-12-07,-0.4336
2016-12-08,0.9799
2016-12-09,0.7412
2016-12-12,-0.1873
2016-12-13,-0.3217
2016-12-14,-1.7749000000000001
2016-12-15,-0.1232
2016-12-16,-0.0411
2016-12-19,1.1929
2016-12-20,0.2439
2016-12-21,-0.8381
2016-12-22,-0.4635
2016-12-23,0.808
2016-12-27,0.7608
2016-12-28,-0.6067
2016-12-29,-0.0407
2016-12-30,-0.3257
2017-01-03,-0.5854
2017-01-04,1.6571
2017-01-05,-1.0238
2017-01-06,0.0408
2017-01-09,0.2449
2017-01-10,-1.1672
2017-01-11,0.3021
2017-01-12,0.397
2017-01-13,0.2318
2017-01-17,-0.2177
2017-01-18,0.1909
2017-01-19,-1.0207
2017-01-20,-1.4987
2017-01-23,1.1307
2017-01-24,1.5045
2017-01-25,-0.1496
2017-01-26,-0.1498
2017-01-27,0.1637
2017-01-30,-0.5174
2017-01-31,0.3162
2017-02-01,1.3293
2017-02-02,-0.825
2017-02-03,0.6137
2017-02-06,-0.5828
2017-02-07,-0.8453
2017-02-08,1.1275
2017-02-09,0.0272
2017-02-10,1.6583
2017-02-13,-0.4813
2017-02-14,-0.8061
2017-02-15,-0.8533
2017-02-16,1.3660999999999999
2017-02-17,-0.4043
2017-02-21,0.9337
2017-02-22,-0.4424
2017-02-23,-0.1885
2017-02-24,0.3238
2017-02-27,0.1614
2017-02-28,0.0403
2017-03-01,2.0803
2017-03-02,-0.3287
2017-03-03,0.3034
2017-03-06,-0.5129
2017-03-07,-0.2379
2017-03-08,0.6228
2017-03-09,-0.1185
2017-03-10,1.2393
2017-03-13,-0.0521
2017-03-14,-0.2866
2017-03-15,0.9277
2017-03-16,-0.3366
2017-03-17,0.1299
2017-03-20,0.986
2017-03-21,-1.3746
2017-03-22,0.1042
2017-03-23,0.4034
2017-03-24,-0.6998
2017-03-27,0.0
2017-03-28,0.5873
2017-03-29,-0.0389
2017-03-30,-0.2336
2017-03-31,0.1691
2017-04-03,-0.7014
2017-04-04,0.3793
2017-04-05,-0.86
2017-04-06,0.5915
2017-04-07,-0.4835
2017-04-10,0.9585
2017-04-11,0.039
2017-04-12,-0.897
2017-04-13,-0.5641
2017-04-17,1.9393
2017-04-18,0.3882
2017-04-19,-0.0258
2017-04-20,0.3482
2017-04-21,0.2185
2017-04-24,0.3975
2017-04-25,0.5492
2017-04-26,0.7748
2017-04-27,-0.6932
2017-04-28,1.9165
2017-05-01,-0.3113
2017-05-02,0.5895
2017-05-03,0.3117
2017-05-04,1.1684
2017-05-05,0.6389
2017-05-08,0.7325
2017-05-09,-0.0364
2017-05-10,0.4728
2017-05-11,-0.4103
2017-05-12,-0.1212
2017-05-15,0.2426
2017-05-16,0.1936
2017-05-17,-0.616
2017-05-18,-0.1702
2017-05-19,0.2678
2017-05-22,0.5828
2017-05-23,0.4225
2017-05-24,0.2404
2017-05-25,0.9114
2017-05-26,0.2614
2017-05-30,0.2015
2017-05-31,0.5559
2017-06-01,1.4704
2017-06-02,0.0812
2017-06-05,-0.556
2017-06-06,-0.431
2017-06-07,0.2457
2017-06-08,-0.5135
2017-06-09,0.4692
2017-06-12,-0.2452
2017-06-13,0.8661
2017-06-14,0.0812
2017-06-15,-0.0232
2017-06-16,-0.3247
2017-06-19,0.9308
2017-06-20,0.1614
2017-06-21,0.1266
2017-06-22,-0.2069
2017-06-23,-0.023
2017-06-26,0.3917
2017-06-27,-0.8836
2017-06-28,0.6484
2017-06-29,-0.5062
2017-06-30,0.4278
2017-07-03,0.2533
2017-07-05,0.2412
2017-07-06,0.0229
2017-07-07,0.8934
2017-07-10,0.2384
2017-07-11,-0.1472
2017-07-12,0.9187
2017-07-13,-0.3933
2017-07-14,0.9026
2017-07-17,0.4025
2017-07-18,-0.0557
2017-07-19,0.39
2017-07-20,-0.4329
2017-07-21,-0.2118
2017-07-24,0.3016
2017-07-25,-0.8607
2017-07-26,-0.7103
2017-07-27,-0.0681
2017-07-28,-6.4658999999999995
2017-07-31,-1.6766
2017-08-01,1.9523000000000001
2017-08-02,-0.3151
2017-08-03,0.0
2017-08-04,0.1337
2017-08-07,0.4614
2017-08-08,0.0
2017-08-09,-0.3142
2017-08-10,-1.176
2017-08-11,0.7729
2017-08-14,0.9374
2017-08-15,-0.193
2017-08-16,0.9668
2017-08-17,-1.6996
2017-08-18,0.0244
2017-08-21,-0.8034
2017-08-22,0.7731
2017-08-23,-0.621
2017-08-24,-0.6494
2017-08-25,1.6157
2017-08-28,-0.6433
2017-08-29,0.171
2017-08-30,1.1829
2017-08-31,0.7714
2017-09-01,0.3229
2017-09-05,-0.7511
2017-09-06,-0.4805
2017-09-07,0.9173
2017-09-08,0.2512
2017-09-11,1.5509
2017-09-12,0.094
2017-09-13,-0.8216
2017-09-14,0.4379
2017-09-15,-0.1885
2017-09-18,0.8618
2017-09-19,0.1404
2017-09-20,0.6545
2017-09-21,0.0348
2017-09-22,-0.4991
2017-09-25,1.2133
2017-09-26,-0.0115
2017-09-27,-0.2421
2017-09-28,0.624
2017-09-29,-0.8842
2017-10-02,1.819
2017-10-03,0.6259
2017-10-04,-0.3279
2017-10-05,0.0
2017-10-06,0.4992
2017-10-09,-0.1355
2017-10-10,0.0113
2017-10-11,-0.1243
2017-10-12,0.1471
2017-10-13,0.3955
2017-10-16,0.1126
2017-10-17,0.045
2017-10-18,-0.4271
2017-10-19,0.0451
2017-10-20,0.6318
2017-10-23,-0.1906
2017-10-24,0.1011
2017-10-25,-0.7069
2017-10-26,0.5085
2017-10-27,-1.1356
2017-10-30,-1.6718
2017-10-31,1.0756000000000001
2017-11-01,0.3905
2017-11-02,-0.9267
2017-11-03,0.3926
2017-11-06,-1.2537
2017-11-07,-0.1514
2017-11-08,0.0117
2017-11-09,-1.1315
2017-11-10,0.177
2017-11-13,0.8008
2017-11-14,0.0234
2017-11-15,-0.1519
2017-11-16,0.737
2017-11-17,-0.5342
2017-11-20,-0.2102
2017-11-21,1.2519
2017-11-22,-0.7973
2017-11-24,0.4659
2017-11-27,0.5681
2017-11-28,0.196
2017-11-29,0.7479
2017-11-30,0.9708
2017-12-01,-0.9162
2017-12-04,0.5251
2017-12-05,1.0675
2017-12-06,-0.9326
2017-12-07,0.2382
2017-12-08,-0.5431
2017-12-11,-0.7053
2017-12-12,-0.9739
2017-12-13,0.3008
2017-12-14,-0.3691
2017-12-15,0.7063
2017-12-18,-0.4714
2017-12-19,0.0116
2017-12-20,-0.2888
2017-12-21,-0.6603
2017-12-22,0.1632
2017-12-26,-0.5937
2017-12-27,0.2694
2017-12-28,1.3197999999999999
2017-12-29,-0.5418
2018-01-02,0.8461
2018-01-03,0.2069
2018-01-04,-1.3534
2018-01-05,1.0464
2018-01-08,0.3337
2018-01-09,-0.9289
2018-01-10,-0.8334
2018-01-11,0.677
2018-01-12,0.3594
2018-01-16,-0.3697
2018-01-17,0.6957
2018-01-18,0.4606
2018-01-19,1.5704
2018-01-22,-1.2978
2018-01-23,0.1601
2018-01-24,0.6849
2018-01-25,1.3946
2018-01-26,-0.3243
2018-01-29,-1.5817999999999999
2018-01-30,0.3192
2018-01-31,-0.3079
2018-02-01,-0.6635
2018-02-02,-1.1976
2018-02-05,-2.8205
2018-02-06,0.4917
2018-02-07,0.0716
2018-02-08,-2.9457
2018-02-09,0.9585
2018-02-12,0.5355
2018-02-13,8.6199
2018-02-14,1.0477
2018-02-15,0.5625
2018-02-16,0.7239
2018-02-20,-0.8385
2018-02-21,-0.9884
2018-02-22,0.4991
2018-02-23,0.4194
2018-02-26,-0.2308
2018-02-27,-1.41
2018-02-28,-0.0894
2018-03-01,-0.4697
2018-03-02,0.764
2018-03-05,0.8029
2018-03-06,0.4093
2018-03-07,-0.6941
2018-03-08,-0.2108
2018-03-09,1.0228
2018-03-12,-0.099
2018-03-13,-0.3084
2018-03-14,-0.4751
2018-03-15,0.2332
2018-03-16,-0.144
2018-03-19,-0.2108
2018-03-20,-0.2001
2018-03-21,-0.2116
2018-03-22,-1.8194
2018-03-23,-1.3529
2018-03-26,1.6596
2018-03-27,-0.1474
2018-03-28,0.3179
2018-03-29,1.6636
2018-04-02,-2.1151
2018-04-03,1.8537
2018-04-04,0.1675
2018-04-05,0.7691
2018-04-06,-2.1018
2018-04-09,1.5819
2018-04-10,3.1368
2018-04-11,-0.5069
2018-04-12,0.4878
2018-04-13,0.0539
2018-04-16,1.6819
2018-04-17,1.9298
2018-04-18,-0.5409
2018-04-19,-0.8472
2018-04-20,-0.3797
2018-04-23,-0.0953
2018-04-24,-1.2401
2018-04-25,-0.0322
2018-04-26,0.1396
2018-04-27,0.193
2018-04-30,0.0428
2018-05-01,0.0428
2018-05-02,-1.0477
2018-05-03,-1.5556999999999999
2018-05-04,1.2511
2018-05-07,0.5853
2018-05-08,-0.7759
2018-05-09,1.3078
2018-05-10,0.8929
2018-05-11,0.5331
2018-05-14,-0.9757
2018-05-15,-1.3602
2018-05-16,1.5635
2018-05-17,-0.2673
2018-05-18,0.2894
2018-05-21,0.481
2018-05-22,-0.0532
2018-05-23,0.1384
2018-05-24,-0.0638
2018-05-25,0.0532
2018-05-29,-0.8185
2018-05-30,0.6966
2018-05-31,-1.7454
2018-06-01,0.4874
2018-06-04,1.1749
2018-06-05,0.0639
2018-06-06,-0.0106
2018-06-07,-0.7134
2018-06-08,0.4505
2018-06-11,0.1708
2018-06-12,0.3517
2018-06-13,0.1806
2018-06-14,0.5725
2018-06-15,0.0633
2018-06-18,-0.0843
2018-06-19,-0.6221
2018-06-20,0.4138
2018-06-21,-1.6272
2018-06-22,-0.5048
2018-06-25,-0.4858
2018-06-26,0.575
2018-06-27,-0.658
2018-06-28,0.6623
2018-06-29,0.7227
2018-07-02,0.2249
2018-07-03,0.4274
2018-07-05,0.5852
2018-07-06,-0.4866
2018-07-09,1.0842
2018-07-10,1.062
2018-07-11,-0.4474
2018-07-12,0.0627
2018-07-13,-0.9087
2018-07-16,-1.6654
2018-07-17,1.4471
2018-07-18,-0.0211
2018-07-19,1.8072
2018-07-20,-0.571
2018-07-23,-0.6682
2018-07-24,-0.4099
2018-07-25,-0.0211
2018-07-26,1.4144999999999999
2018-07-27,7.1094
2018-07-30,-0.3887
2018-07-31,0.2634
2018-08-01,0.0
2018-08-02,0.537
2018-08-03,1.0876
2018-08-06,0.1057
2018-08-07,-0.6333
2018-08-08,-0.5698
2018-08-09,0.913
2018-08-10,-1.4628999999999999
2018-08-13,-0.9572
2018-08-14,0.572
2018-08-15,-0.6276
2018-08-16,0.3256
2018-08-17,1.0721
2018-08-20,0.0973
2018-08-21,0.418
2018-08-22,-0.1065
2018-08-23,-0.2617
2018-08-24,0.8648
2018-08-27,0.7129
2018-08-28,-0.6218
2018-08-29,0.7797
2018-08-30,0.0
2018-08-31,0.0096
2018-09-04,1.5949
2018-09-05,1.692
2018-09-06,0.7118
2018-09-07,-0.9637
2018-09-10,0.6117
2018-09-11,-0.0368
2018-09-12,0.8017
2018-09-13,1.3072
2018-09-14,1.0377
2018-09-17,-0.5984
2018-09-18,0.2606
2018-09-19,-0.4122
2018-09-20,-0.5759
2018-09-21,-0.1539
2018-09-24,0.0544
2018-09-25,-1.4677
2018-09-26,-0.1471
2018-09-27,-0.2394
2018-09-28,-0.5538
2018-10-01,0.0278
2018-10-02,0.3526
2018-10-03,-0.1387
2018-10-04,-0.8426
2018-10-05,0.0747
2018-10-08,0.4665
2018-10-09,-1.8111000000000002
2018-10-10,-3.1215
2018-10-11,-0.8299
2018-10-12,0.0788
2018-10-15,0.4919
2018-10-16,3.3774
2018-10-17,-0.5492
2018-10-18,-0.7141
2018-10-19,0.048
2018-10-22,-0.3355
2018-10-23,-0.2789
2018-10-24,-3.4722
2018-10-25,1.209
2018-10-26,-0.9182
2018-10-29,-0.1993
2018-10-30,1.5474999999999999
2018-10-31,0.582
2018-11-01,1.1965
2018-11-02,0.6009
2018-11-05,-1.8497
2018-11-06,2.179
2018-11-07,0.9702
2018-11-08,0.019
2018-11-09,-0.799
2018-11-12,-2.4163
2018-11-13,0.5994
2018-11-14,-0.293
2018-11-15,2.6548
2018-11-16,1.4219
2018-11-19,-1.035
2018-11-20,-0.8272
2018-11-21,-0.7765
2018-11-23,0.3865
2018-11-26,-0.2021
2018-11-27,-1.3405
2018-11-28,1.6911
2018-11-29,-0.173
2018-11-30,0.1926
2018-12-03,0.394
2018-12-04,-1.4551
2018-12-06,-1.2726
2018-12-07,-1.8302
2018-12-10,-0.6615
2018-12-11,-0.444
2018-12-12,1.2770000000000001
2018-12-13,0.3903
2018-12-14,0.0199
2018-12-17,-1.6942
2018-12-18,-0.7097
2018-12-19,-2.3994
2018-12-20,-0.6068
2018-12-21,-1.5367
2018-12-24,-4.1154
2018-12-26,2.3077
2018-12-27,0.6538
2018-12-28,0.3573
2018-12-31,1.4779
2019-01-02,-4.1352
2019-01-03,-1.2086999999999999
2019-01-04,2.2225
2019-01-07,0.9663
2019-01-08,1.7074
2019-01-09,-0.0428
2019-01-10,1.1767
2019-01-11,0.1586
2019-01-14,-0.8128
2019-01-15,0.9046
2019-01-16,-0.1055
2019-01-17,1.2881
2019-01-18,1.8347
2019-01-22,-1.2796
2019-01-23,0.9747
2019-01-24,-0.2567
2019-01-25,0.2677
2019-01-28,0.5031
2019-01-29,0.4087
2019-01-30,0.0204
2019-01-31,1.1842
2019-02-01,0.4338
2019-02-04,0.3014
2019-02-05,1.2218
2019-02-06,0.5145
2019-02-07,0.3544
2019-02-08,-0.5493
2019-02-11,0.3058
2019-02-12,0.6096
2019-02-13,0.4691
2019-02-14,-1.0019
2019-02-15,0.167
2019-02-19,-0.3826
2019-02-20,0.6992
2019-02-21,0.841
2019-02-22,-1.0376
2019-02-25,-0.4802
2019-02-26,-0.2462
2019-02-27,0.0987
2019-02-28,0.3156
2019-03-01,-0.9044
2019-03-04,0.7936
2019-03-05,-0.1378
2019-03-06,-0.9658
2019-03-07,-0.607
2019-03-08,0.5907
2019-03-11,1.5427
2019-03-12,0.2352
2019-03-13,0.0196
2019-03-14,0.5964
2019-03-15,0.1555
2019-03-18,0.6405
2019-03-19,-0.1061
2019-03-20,0.3378
2019-03-21,1.5295999999999998
2019-03-22,-1.6202
2019-03-25,0.6549
2019-03-26,0.8899
2019-03-27,0.0759
2019-03-28,0.635
2019-03-29,0.1883
2019-04-01,1.2407
2019-04-02,-0.4549
2019-04-03,0.2332
2019-04-04,0.5862
2019-04-05,0.592
2019-04-08,0.2299
2019-04-09,-0.7615
2019-04-10,0.8136
2019-04-11,0.5686
2019-04-12,0.5927
2019-04-15,-0.3807
2019-04-16,-0.2457
2019-04-17,-1.7515
2019-04-18,0.4735
2019-04-22,0.6654
2019-04-23,1.0374
2019-04-24,-0.109
2019-04-25,-0.4457
2019-04-26,1.7999
2019-04-29,-0.0898
2019-04-30,0.2515
2019-05-01,1.4114
2019-05-02,0.1684
2019-05-03,0.7522
2019-05-06,1.0277
2019-05-07,-0.9129
2019-05-08,0.0175
2019-05-09,-0.8685
2019-05-10,0.531
2019-05-13,-0.7042
2019-05-14,0.1596
2019-05-15,0.2301
2019-05-16,0.7683
2019-05-17,-0.2892
2019-05-20,-0.6504
2019-05-21,0.3892
2019-05-22,-0.2908
2019-05-23,-0.1679
2019-05-24,-0.0266
2019-05-28,-0.0266
2019-05-29,-0.1771
2019-05-30,0.7187
2019-05-31,-0.2114
2019-06-03,0.671
2019-06-04,1.4821
2019-06-05,1.2185
2019-06-06,2.6466
2019-06-07,1.4056
2019-06-10,1.0663
2019-06-11,-0.5194
2019-06-12,-0.7832
2019-06-13,-0.74
2019-06-14,-0.5219
2019-06-17,0.0666
2019-06-18,-0.5659
2019-06-19,-0.067
2019-06-20,0.335
2019-06-21,-0.3589
2019-06-24,-0.5026
2019-06-25,1.9195
2019-06-26,-1.5034
2019-06-27,1.9373
2019-06-28,2.2954
2019-07-01,-0.0563
2019-07-02,-0.5874
2019-07-03,1.9264999999999999
2019-07-05,-1.0403
2019-07-08,-0.4976
2019-07-09,0.0645
2019-07-10,-0.3949
2019-07-11,0.356
2019-07-12,-0.4919
2019-07-15,-0.3971
2019-07-16,0.1952
2019-07-17,0.3004
2019-07-18,0.6719
2019-07-19,-0.772
2019-07-22,-0.1945
2019-07-23,1.0961
2019-07-24,-0.9798
2019-07-25,-0.3001
2019-07-26,1.2772999999999999
2019-07-29,0.3615
2019-07-30,-0.6163
2019-07-31,-2.2535
2019-08-01,-2.859
2019-08-02,0.3913
2019-08-05,-0.7965
2019-08-06,2.2549
2019-08-07,1.6204
2019-08-08,0.9946
2019-08-09,-1.4567999999999999
2019-08-12,-0.8755
2019-08-13,0.9998
2019-08-14,-1.7570999999999999
2019-08-15,-0.6382
2019-08-16,1.6226
2019-08-19,-0.0249
2019-08-20,-1.1146
2019-08-21,0.3785
2019-08-22,1.014
2019-08-23,-0.2323
2019-08-26,0.607
2019-08-27,0.4215
2019-08-28,0.2963
2019-08-29,-0.1395
2019-08-30,0.4355
2019-09-03,-2.1028000000000002
2019-09-04,1.9139
2019-09-05,-0.6069
2019-09-06,-0.264
2019-09-09,-1.4725
2019-09-10,0.0084
2019-09-11,-0.403
2019-09-12,-0.4889
2019-09-13,0.2965
2019-09-16,-1.6216
2019-09-17,0.455
2019-09-18,1.1025
2019-09-19,-0.3804
2019-09-20,0.1697
2019-09-23,0.0424
2019-09-24,0.3472
2019-09-25,0.5147
2019-09-26,-0.1679
2019-09-27,-0.2102
2019-09-30,-0.1854
2019-10-01,-0.6585
2019-10-02,-1.9716
2019-10-03,-0.3121
2019-10-04,2.035
2019-10-07,-0.6563
2019-10-08,-1.5271
2019-10-09,1.4811
2019-10-10,-0.1459
2019-10-11,0.0172
2019-10-14,-0.4126
2019-10-15,-0.5783
2019-10-16,0.2518
2019-10-17,0.9353
2019-10-18,1.0553
2019-10-21,0.1019
2019-10-22,-1.0517
2019-10-23,0.6086
2019-10-24,-0.0256
2019-10-25,0.4602
2019-10-28,0.2715
2019-10-29,0.5668
2019-10-30,0.6244
2019-10-31,-0.9224
2019-11-01,-6.2294
2019-11-04,-1.9135
2019-11-05,-0.0092
2019-11-06,0.7639
2019-11-07,-0.0822
2019-11-08,-0.3656
2019-11-11,-0.3853
2019-11-12,-0.3316
2019-11-13,1.2937
2019-11-14,0.7754
2019-11-15,-0.4617
2019-11-18,0.3456
2019-11-19,0.145
2019-11-20,0.181
2019-11-21,0.542
2019-11-22,-1.0602
2019-11-25,0.7537
2019-11-26,1.4511
2019-11-27,0.2399
2019-11-29,-0.6293
2019-12-02,-0.0981
2019-12-03,0.6249
2019-12-04,-0.8251
2019-12-05,0.1521
2019-12-06,0.1161
2019-12-09,0.4907
2019-12-10,-0.6126
2019-12-11,0.5628
2019-12-12,1.4302000000000001
2019-12-13,-0.1839
2019-12-16,0.3071
2019-12-17,-0.8485
2019-12-18,-0.2382
2019-12-19,0.1592
2019-12-20,1.501
2019-12-23,0.3566
2019-12-24,-0.5547
2019-12-26,0.0784
2019-12-27,0.1742
2019-12-30,0.6434
2019-12-31,-0.1209
2020-01-02,-1.6779
2020-01-03,0.3167
2020-01-06,0.0088
2020-01-07,-0.9996
2020-01-08,0.2746
2020-01-09,1.2719
2020-01-10,0.9855
2020-01-13,0.3541
2020-01-14,-0.0602
2020-01-15,0.4994
2020-01-16,1.2938
2020-01-17,-0.7613
2020-01-21,-1.4405000000000001
2020-01-22,0.0346
2020-01-23,1.4697
2020-01-24,-0.213
2020-01-27,-0.5379
2020-01-28,-0.1374
2020-01-29,-0.0259
2020-01-30,0.5175
2020-01-31,-0.8838
2020-02-03,1.4977
2020-02-04,-0.2474
2020-02-05,0.7867
2020-02-06,-0.2885
2020-02-07,-0.7062
2020-02-10,-0.7712
2020-02-11,0.2159
2020-02-12,-1.1547
2020-02-13,1.2989
2020-02-14,0.4045
2020-02-18,-1.2085
2020-02-19,-0.2169
2020-02-20,-0.0696
2020-02-21,-2.5667999999999997
2020-02-24,-2.4737
2020-02-25,-2.0786
2020-02-26,-2.1133
2020-02-27,-2.1781
2020-02-28,-1.2988
2020-03-02,2.4834
2020-03-03,-0.7917
2020-03-04,4.5543
2020-03-05,-3.2204
2020-03-06,3.1929
2020-03-09,-5.452
2020-03-10,2.5037000000000003
2020-03-11,-4.7216000000000005
2020-03-12,-4.7235
2020-03-13,2.1081
2020-03-16,-8.8287
2020-03-17,9.7519
2020-03-18,0.311
2020-03-19,2.2016
2020-03-20,-6.4422
2020-03-23,-9.2747
2020-03-24,4.9208
2020-03-25,2.4074
2020-03-26,6.6754999999999995
2020-03-27,-2.2869
2020-03-30,6.8936
2020-03-31,-0.9355
2020-04-01,-3.3454
2020-04-02,-0.0624
2020-04-03,-2.0385
2020-04-06,6.9753
2020-04-07,0.3573
2020-04-08,2.9569
2020-04-09,3.0353
2020-04-13,-4.5866
2020-04-14,1.6317
2020-04-15,-2.9706
2020-04-16,0.9115
2020-04-17,1.0702
2020-04-20,3.8858
2020-04-21,-0.7668
2020-04-22,0.1696
2020-04-23,-1.2041
2020-04-24,-0.857
2020-04-27,8.1252
2020-04-28,-0.9238
2020-04-29,-0.9894
2020-04-30,-2.7253
2020-05-01,-0.8778
2020-05-04,0.6312
2020-05-05,-1.1703000000000001
2020-05-06,-0.6631
2020-05-07,0.5817
2020-05-08,1.9532
2020-05-11,-1.1346
2020-05-12,-2.2199
2020-05-13,-1.4719
2020-05-14,0.0391
2020-05-15,-0.937
2020-05-18,2.6108000000000002
2020-05-19,-0.4033
2020-05-20,0.6555
2020-05-21,0.6513
2020-05-22,0.0095
2020-05-26,4.2341
2020-05-27,2.7385
2020-05-28,-0.8441
2020-05-29,-0.1882
2020-06-01,0.0269
2020-06-02,0.5834
2020-06-03,1.0796999999999999
2020-06-04,-1.0064
2020-06-05,1.1236
2020-06-08,0.1587
2020-06-09,-0.9773
2020-06-10,-0.738
2020-06-11,-6.6195
2020-06-12,1.0647
2020-06-15,0.0475
2020-06-16,1.8784
2020-06-17,-0.447
2020-06-18,0.0748
2020-06-19,0.5701
2020-06-22,-0.0465
2020-06-23,-0.1023
2020-06-24,-1.3961000000000001
2020-06-25,1.5669
2020-06-26,0.1115
2020-06-29,1.4203000000000001
2020-06-30,2.4989
2020-07-01,0.4465
2020-07-02,2.2137000000000002
2020-07-06,0.2522
2020-07-07,-0.0954
2020-07-08,-1.9279
2020-07-09,0.735
2020-07-10,1.0461
2020-07-13,-1.3223
2020-07-14,2.539
2020-07-15,1.367
2020-07-16,-0.5598
2020-07-17,1.8424
2020-07-20,-0.0921
2020-07-21,-0.9305
2020-07-22,0.2708
2020-07-23,-0.0506
2020-07-24,0.3462
2020-07-27,0.8414
2020-07-28,-1.2015
2020-07-29,0.6438
2020-07-30,-0.7575
2020-07-31,-2.2984
